Data from WindowProjectSample3_Transmission__13__00013.txt Node

Date: Sun May 04 09:54:01 EDT 2025
User: jessi
Spectrometer: SR400872
Trigger mode: 0
Integration Time (sec): 5.000070E-1
Scans to average: 10
Electric dark correction enabled: true
Nonlinearity correction enabled: true
Boxcar width: 0
XAxis mode: Wavelengths
Number of Pixels in Spectrum: 3648
>>>>>Begin Spectral Data<<<<<
184.909	-5708.04452
185.132	11012.58115
185.355	-8355.26192
185.578	-54706.38977
185.801	3177.14929
186.024	-141022.64462
186.247	-802.46702
186.47	1445.47608
186.693	1614.95996
186.916	-401.35448
187.139	-2549140.09543
187.362	-2907.06646
187.585	7846.56451
187.808	1996.44283
188.031	-87.77648
188.254	4691.19662
188.476	-1754.50882
188.699	2531.74394
188.922	592.17042
189.145	-6091.60429
189.368	-3784.34869
189.591	1940.70044
189.813	-147567.59461
190.036	9726.74211
190.259	1543.10402
190.482	5859.78534
190.705	16512.39005
190.927	16466.67667
191.15	-4081.5446
191.373	2233.06246
191.595	1571.49184
191.818	16959.61759
192.041	762.50561
192.263	-7478.27357
192.486	-1617.86618
192.709	2825.62396
192.931	-3475.48997
193.154	13349.14135
193.377	2525.29699
193.599	28187.71489
193.822	2095.95048
194.044	2050.47456
194.267	1105.55324
194.489	-232.12574
194.712	3691.17782
194.934	33525.20585
195.157	-559.69439
195.379	10866.06785
195.602	1884.35187
195.824	4610.8083
196.047	6558.0755
196.269	13608.27528
196.492	-12042.7634
196.714	3580.20694
196.936	7193.40849
197.159	10832.98976
197.381	4396.30146
197.604	1670942.07107
197.826	2024.46331
198.048	2003.5883
198.271	9303.54711
198.493	2004.4601
198.715	2724.65072
198.938	8619.54764
199.16	3296.87225
199.382	9698.29294
199.604	9294.10312
199.827	1835.33347
200.049	3117.76112
200.271	21050.98282
200.493	1800.83
200.715	7521.72289
200.938	7675.68567
201.16	-3619.34456
201.382	32809.85495
201.604	4021.89449
201.826	8433.50169
202.048	4340.71121
202.27	1848.51539
202.492	6039.89086
202.715	19968.63615
202.937	3891.78516
203.159	1538.28265
203.381	2072.51974
203.603	2882.4089
203.825	-1528.4492
204.047	-23149.88293
204.269	3575.13255
204.491	7628.65665
204.713	-1737623.98334
204.935	2312.8916
205.156	3790.65964
205.378	1554.59093
205.6	37360.00911
205.822	4661.98879
206.044	3464.47438
206.266	6452.5251
206.488	1609.32352
206.71	9007.39103
206.932	1428.27799
207.153	30001.50112
207.375	16219.18837
207.597	12337.54594
207.819	39018.67522
208.041	-45662.90537
208.262	1318.34822
208.484	13750.94826
208.706	3626.53418
208.927	2526.25884
209.149	957.04972
209.371	3561.28083
209.593	851.19929
209.814	9927.51024
210.036	-498276.21356
210.258	1799.19568
210.479	2313.90486
210.701	3179.09393
210.922	-5603.03794
211.144	-3237.53688
211.366	5220.14183
211.587	2572.79242
211.809	5939.13288
212.03	-66926.21144
212.252	459.18279
212.473	891.57456
212.695	722.66427
212.916	1287.73948
213.138	543.20527
213.359	4918.94511
213.581	2808.16384
213.802	871.47053
214.024	6877.98685
214.245	-13483.9058
214.466	352.00389
214.688	3801.22235
214.909	10578.5719
215.131	3986.49323
215.352	2709.48925
215.573	11950.31742
215.795	2226.43726
216.016	1922.57471
216.237	-704648.25369
216.459	1914.56347
216.68	5762.30256
216.901	3098.86472
217.122	757.87648
217.344	3087.38579
217.565	6931.30061
217.786	3643.012
218.007	913.29489
218.228	1985.95186
218.45	-16798.46852
218.671	46944.09728
218.892	18589.41902
219.113	1638.0944
219.334	5939.37717
219.555	-7822.52098
219.776	1755.74094
219.997	4086.23196
220.219	1184.68808
220.44	1600.09231
220.661	1759.71062
220.882	5782.46898
221.103	1515.43403
221.324	7832.77024
221.545	3125.43345
221.766	3222.53042
221.987	1483.20587
222.208	967.14636
222.429	2267.57417
222.65	248.5941
222.87	795.93413
223.091	1743.39837
223.312	1055.23021
223.533	1929.74592
223.754	1567.66447
223.975	1685.50928
224.196	1032.73464
224.417	5237.5292
224.637	678.05165
224.858	90.78445
225.079	1207.64443
225.3	608.39273
225.521	2297.95575
225.741	659.29863
225.962	654.80019
226.183	147.37834
226.404	1016.16866
226.624	571.90759
226.845	589.46683
227.066	466.08211
227.286	297.09322
227.507	194.447
227.728	158.02806
227.948	273.42082
228.169	100.19015
228.389	100.51818
228.61	57.65918
228.831	81.8947
229.051	7.51161
229.272	49.91332
229.492	73.6658
229.713	23.25009
229.933	49.88886
230.154	43.24909
230.374	72.88593
230.595	57.48972
230.815	32.7401
231.036	55.79923
231.256	-11.39142
231.477	95.93778
231.697	61.22661
231.917	60.58615
232.138	79.23444
232.358	157.47971
232.579	149.9201
232.799	27.25963
233.019	135.58612
233.24	164.74865
233.46	56.70136
233.68	87.25942
233.901	62.35581
234.121	41.62178
234.341	17.0174
234.561	-2.35415
234.782	31.35566
235.002	100.26696
235.222	-0.17001
235.442	88.68418
235.662	45.97241
235.883	90.61861
236.103	76.90606
236.323	56.55637
236.543	42.82529
236.763	60.7125
236.983	61.96274
237.203	60.67498
237.423	85.72967
237.643	128.42633
237.864	111.61482
238.084	31.08003
238.304	36.75789
238.524	72.01764
238.744	60.00688
238.964	101.28
239.184	87.31575
239.404	90.22597
239.624	50.50541
239.843	84.74458
240.063	50.51891
240.283	32.89804
240.503	37.92862
240.723	34.04747
240.943	21.39143
241.163	28.00565
241.383	20.61466
241.603	9.94532
241.822	12.23837
242.042	8.77449
242.262	12.19292
242.482	13.33175
242.702	15.55131
242.921	5.40158
243.141	10.94438
243.361	10.11546
243.581	14.50596
243.8	12.23755
244.02	8.23396
244.24	15.09921
244.459	13.80968
244.679	27.77593
244.899	19.2856
245.118	21.84447
245.338	18.88719
245.558	21.08202
245.777	12.95391
245.997	14.56094
246.216	14.96535
246.436	8.56867
246.655	5.98528
246.875	4.44109
247.094	8.71477
247.314	3.19093
247.533	5.23779
247.753	6.42867
247.972	5.37137
248.192	1.9189
248.411	3.14875
248.631	5.58262
248.85	7.6576
249.07	5.92934
249.289	9.751
249.508	7.40199
249.728	11.6927
249.947	11.43308
250.166	13.77524
250.386	7.17963
250.605	9.766
250.824	17.7007
251.044	13.36315
251.263	35.58806
251.482	19.2955
251.701	15.63535
251.921	-0.25538
252.14	5.70051
252.359	6.58787
252.578	14.91076
252.798	5.89867
253.017	13.2468
253.236	7.48447
253.455	9.17815
253.674	17.82746
253.893	8.12362
254.112	12.15931
254.331	19.09917
254.551	14.77198
254.77	6.89277
254.989	21.56919
255.208	17.2042
255.427	22.73155
255.646	19.64429
255.865	32.27819
256.084	13.84296
256.303	16.4546
256.522	20.36499
256.741	4.20352
256.96	4.58796
257.179	11.80614
257.397	16.53849
257.616	8.70841
257.835	9.10389
258.054	22.70829
258.273	14.4609
258.492	16.01846
258.711	8.86908
258.93	4.14636
259.148	6.40932
259.367	6.28012
259.586	7.67847
259.805	3.30293
260.023	7.0211
260.242	5.44228
260.461	3.97357
260.68	2.22875
260.898	6.32768
261.117	2.23282
261.336	1.47697
261.554	5.55462
261.773	5.70699
261.992	1.45101
262.21	5.77322
262.429	6.75503
262.648	10.93256
262.866	12.39715
263.085	8.47276
263.303	7.52521
263.522	13.21392
263.74	14.03061
263.959	22.58281
264.178	11.51874
264.396	10.4911
264.615	7.64998
264.833	16.78938
265.051	14.66712
265.27	15.49986
265.488	16.46689
265.707	9.92956
265.925	16.28655
266.144	7.46872
266.362	8.70461
266.58	8.19221
266.799	7.24791
267.017	9.44272
267.235	7.54155
267.454	5.23312
267.672	3.16122
267.89	6.68862
268.109	6.87038
268.327	6.6335
268.545	1.46754
268.763	6.06284
268.982	3.07798
269.2	7.16687
269.418	4.59562
269.636	3.14307
269.854	7.10017
270.073	5.05131
270.291	2.82201
270.509	3.51382
270.727	6.63015
270.945	10.86068
271.163	10.69114
271.381	2.45942
271.599	4.33147
271.817	7.57591
272.036	2.78333
272.254	4.56402
272.472	3.80015
272.69	3.556
272.908	3.99305
273.126	6.50973
273.344	7.72617
273.562	2.82708
273.779	3.93742
273.997	5.79022
274.215	6.85458
274.433	4.85873
274.651	7.11364
274.869	7.32705
275.087	4.4889
275.305	6.0804
275.523	4.12674
275.74	4.65542
275.958	8.09641
276.176	12.19728
276.394	3.81047
276.612	5.15322
276.829	4.93863
277.047	4.46829
277.265	4.49446
277.483	5.72084
277.7	6.73424
277.918	5.32303
278.136	9.42691
278.353	4.66804
278.571	3.02606
278.789	7.54686
279.006	2.13661
279.224	4.18657
279.442	7.39219
279.659	5.1415
279.877	3.58542
280.094	8.55682
280.312	1.89151
280.529	5.265
280.747	1.77699
280.964	4.0053
281.182	8.46036
281.399	4.30906
281.617	5.72957
281.834	3.99306
282.052	2.98362
282.269	4.82922
282.487	3.91437
282.704	3.48685
282.921	3.47737
283.139	4.96102
283.356	6.12893
283.574	5.67272
283.791	2.8308
284.008	7.93381
284.226	4.68314
284.443	4.96922
284.66	6.20423
284.877	5.06756
285.095	3.29388
285.312	2.29512
285.529	1.56757
285.746	1.23864
285.964	3.16846
286.181	2.05246
286.398	2.91956
286.615	3.97988
286.832	3.9512
287.05	1.32365
287.267	3.04648
287.484	2.78099
287.701	4.30179
287.918	3.96383
288.135	4.27529
288.352	1.91825
288.569	2.36991
288.786	3.79988
289.003	3.12187
289.22	4.23349
289.437	2.42946
289.654	4.71708
289.871	4.59676
290.088	4.26881
290.305	3.26807
290.522	2.6537
290.739	3.07118
290.956	4.66948
291.173	5.69976
291.39	5.27799
291.607	3.59213
291.824	2.921
292.04	1.87882
292.257	4.45886
292.474	5.0306
292.691	3.2542
292.908	1.56315
293.125	2.39721
293.341	1.57028
293.558	7.58292
293.775	3.18985
293.992	3.18115
294.208	1.41418
294.425	2.15377
294.642	2.93774
294.858	3.96872
295.075	1.35533
295.292	3.14278
295.508	3.85224
295.725	5.35896
295.942	2.5757
296.158	1.82347
296.375	3.06115
296.591	2.26477
296.808	2.43172
297.024	2.80808
297.241	3.22141
297.458	3.42156
297.674	0.31717
297.891	2.79173
298.107	2.26314
298.323	1.79053
298.54	4.23399
298.756	1.98694
298.973	1.00023
299.189	4.40768
299.406	1.87865
299.622	4.44298
299.838	4.3932
300.055	4.02467
300.271	1.14893
300.487	1.59103
300.704	1.9117
300.92	1.06732
301.136	5.84167
301.353	4.28579
301.569	3.14303
301.785	3.48091
302.001	3.97855
302.218	3.61634
302.434	3.37308
302.65	1.19083
302.866	2.3964
303.083	5.92036
303.299	5.86945
303.515	2.7444
303.731	3.11666
303.947	1.01907
304.163	2.09597
304.379	3.19203
304.595	3.71674
304.812	2.16334
305.028	1.83081
305.244	2.56717
305.46	3.96199
305.676	3.96165
305.892	4.99963
306.108	3.33123
306.324	2.54911
306.54	5.73343
306.756	3.25357
306.972	3.88087
307.187	2.59656
307.403	5.05372
307.619	2.52275
307.835	4.53838
308.051	4.84286
308.267	1.49803
308.483	4.33157
308.699	3.74184
308.914	3.16631
309.13	3.15639
309.346	0.89657
309.562	1.46672
309.778	1.13947
309.993	3.57155
310.209	2.70058
310.425	1.31745
310.641	2.54718
310.856	1.50956
311.072	1.36948
311.288	2.76648
311.503	3.08585
311.719	0.83224
311.935	0.52447
312.15	3.2965
312.366	3.08729
312.581	3.59154
312.797	2.92333
313.013	3.94648
313.228	2.14104
313.444	3.02316
313.659	1.97635
313.875	3.66703
314.09	2.86072
314.306	5.16231
314.521	4.21353
314.737	3.82885
314.952	3.31993
315.168	2.98242
315.383	3.57728
315.599	2.83532
315.814	2.57285
316.029	4.12866
316.245	1.27448
316.46	1.03922
316.675	4.69043
316.891	5.83193
317.106	7.06098
317.321	3.78287
317.537	3.88795
317.752	4.09746
317.967	4.22663
318.183	1.89067
318.398	2.72669
318.613	4.4464
318.828	4.90917
319.043	4.37346
319.259	2.62152
319.474	3.5439
319.689	4.80078
319.904	0.78665
320.119	4.10486
320.334	3.60461
320.549	2.84327
320.765	4.84098
320.98	3.60424
321.195	4.48373
321.41	2.91158
321.625	4.32306
321.84	5.64141
322.055	5.51564
322.27	2.11139
322.485	1.90659
322.7	3.53608
322.915	4.68317
323.13	2.16397
323.345	5.25127
323.56	4.15722
323.775	3.89217
323.989	3.87188
324.204	3.57199
324.419	4.34407
324.634	1.24627
324.849	2.93493
325.064	6.25256
325.279	4.45641
325.493	3.8986
325.708	4.48
325.923	2.12934
326.138	2.25881
326.352	5.39831
326.567	4.60306
326.782	2.71636
326.997	2.08059
327.211	4.27884
327.426	3.67074
327.641	2.8679
327.855	1.32658
328.07	3.93708
328.285	5.51014
328.499	2.81962
328.714	3.70225
328.928	4.43421
329.143	3.32939
329.358	4.73922
329.572	4.84294
329.787	5.20675
330.001	6.86362
330.216	1.55709
330.43	5.62553
330.645	5.4276
330.859	4.52637
331.074	2.3369
331.288	3.67155
331.503	5.25798
331.717	1.89737
331.931	3.2561
332.146	3.54834
332.36	6.01805
332.575	4.02947
332.789	3.62924
333.003	3.323
333.218	4.04434
333.432	2.25871
333.646	4.41157
333.86	5.4334
334.075	5.73938
334.289	2.79247
334.503	1.92189
334.717	4.13831
334.932	3.88328
335.146	4.74009
335.36	2.74374
335.574	4.55375
335.788	4.51097
336.003	4.9923
336.217	4.74299
336.431	4.39537
336.645	2.69802
336.859	1.76196
337.073	3.11915
337.287	3.61778
337.501	2.05541
337.715	3.76114
337.929	3.94593
338.143	1.73167
338.357	3.15981
338.571	2.33819
338.785	4.12238
338.999	2.63142
339.213	2.65308
339.427	1.63712
339.641	5.05054
339.855	2.75592
340.069	2.4924
340.283	4.8706
340.497	5.55403
340.711	3.97857
340.924	3.03265
341.138	2.04536
341.352	1.62119
341.566	3.44258
341.78	1.3021
341.993	2.62842
342.207	1.86888
342.421	3.74593
342.635	3.10059
342.848	2.67403
343.062	0.69732
343.276	2.50542
343.49	6.04646
343.703	2.44501
343.917	4.38262
344.131	4.47082
344.344	2.38314
344.558	2.63883
344.771	1.98935
344.985	4.79875
345.199	5.43719
345.412	3.35589
345.626	3.77094
345.839	1.1794
346.053	2.0188
346.266	1.88975
346.48	4.14546
346.693	3.84702
346.907	3.99051
347.12	2.06096
347.334	3.49733
347.547	3.40208
347.76	3.00482
347.974	4.80307
348.187	3.88681
348.401	2.82078
348.614	2.29404
348.827	2.73829
349.041	4.04499
349.254	1.35145
349.467	3.02583
349.681	1.92346
349.894	2.4326
350.107	4.67178
350.32	5.40168
350.534	1.31456
350.747	2.87988
350.96	2.09412
351.173	2.33525
351.386	2.67845
351.6	2.92717
351.813	2.51368
352.026	3.17844
352.239	1.4816
352.452	2.49385
352.665	4.41802
352.878	2.82734
353.092	5.80122
353.305	4.02785
353.518	3.28759
353.731	2.0349
353.944	4.23338
354.157	2.58252
354.37	2.17041
354.583	1.76899
354.796	1.3969
355.009	4.43668
355.222	3.26795
355.435	3.10428
355.647	4.36261
355.86	1.97639
356.073	3.17724
356.286	2.5271
356.499	4.00868
356.712	3.64864
356.925	3.58946
357.138	4.25318
357.35	1.83842
357.563	2.51414
357.776	3.12504
357.989	2.799
358.201	3.62465
358.414	3.53414
358.627	4.47143
358.84	2.75546
359.052	1.45832
359.265	1.85092
359.478	4.0927
359.69	0.17211
359.903	3.71183
360.116	3.96994
360.328	0.99594
360.541	3.72393
360.753	2.10687
360.966	2.33215
361.179	2.51066
361.391	2.26028
361.604	1.83857
361.816	2.40648
362.029	2.1951
362.241	1.82204
362.454	2.39894
362.666	1.73834
362.879	3.24783
363.091	2.57515
363.304	2.03705
363.516	2.63809
363.728	1.3507
363.941	3.39349
364.153	2.56766
364.366	0.5121
364.578	1.50635
364.79	3.45371
365.003	2.89657
365.215	2.42051
365.427	3.30587
365.639	4.04253
365.852	3.19162
366.064	4.77415
366.276	2.58188
366.488	3.38713
366.701	2.44452
366.913	2.5894
367.125	2.74956
367.337	2.0843
367.549	2.17543
367.762	2.78051
367.974	2.8003
368.186	2.32781
368.398	3.85347
368.61	3.51526
368.822	3.56946
369.034	2.75577
369.246	3.67829
369.458	5.65779
369.67	1.71605
369.882	4.92349
370.094	0.60044
370.306	4.495
370.518	2.46534
370.73	2.25347
370.942	2.00558
371.154	2.65634
371.366	2.1426
371.578	3.31346
371.79	2.268
372.002	4.14734
372.214	4.92981
372.425	2.89557
372.637	4.53132
372.849	3.40218
373.061	0.50793
373.273	3.35147
373.484	3.34075
373.696	3.9072
373.908	0.49204
374.12	3.83389
374.331	3.39351
374.543	2.10978
374.755	1.68916
374.967	2.93051
375.178	3.78148
375.39	2.55072
375.602	2.90427
375.813	1.25381
376.025	1.73842
376.236	2.83367
376.448	3.109
376.66	2.47101
376.871	2.38715
377.083	3.65962
377.294	4.2858
377.506	2.30435
377.717	4.14478
377.929	3.00323
378.14	2.0275
378.352	3.42843
378.563	3.4056
378.775	4.27702
378.986	2.00422
379.197	3.04705
379.409	2.26737
379.62	3.71741
379.832	2.93683
380.043	2.53844
380.254	3.00491
380.466	1.64984
380.677	5.82804
380.888	5.32545
381.1	5.66276
381.311	5.64815
381.522	2.79594
381.733	6.08632
381.945	2.49204
382.156	2.90816
382.367	2.25292
382.578	5.95356
382.789	5.78997
383.001	2.36283
383.212	4.49439
383.423	4.73711
383.634	4.10689
383.845	3.62534
384.056	2.47571
384.267	3.03378
384.478	2.80617
384.69	1.63808
384.901	3.47528
385.112	3.20882
385.323	4.65906
385.534	3.08549
385.745	3.12048
385.956	3.34647
386.167	1.83297
386.378	3.3425
386.588	1.90917
386.799	2.0593
387.01	1.16411
387.221	3.74399
387.432	2.90179
387.643	4.84958
387.854	2.5518
388.065	2.55339
388.275	2.6315
388.486	2.4562
388.697	2.86646
388.908	2.60806
389.119	4.09237
389.329	4.76872
389.54	3.02074
389.751	3.27484
389.962	4.06876
390.172	3.07915
390.383	2.43706
390.594	2.12193
390.804	2.13727
391.015	2.29675
391.226	2.78078
391.436	3.35642
391.647	3.19059
391.858	3.31294
392.068	1.22682
392.279	1.76665
392.489	3.05208
392.7	3.7511
392.91	1.62622
393.121	1.96496
393.331	3.14747
393.542	4.06617
393.752	3.45606
393.963	3.06406
394.173	2.94796
394.384	3.57196
394.594	2.63122
394.804	1.65029
395.015	2.98636
395.225	3.58086
395.436	1.86756
395.646	3.44658
395.856	2.21045
396.067	1.44096
396.277	4.04469
396.487	3.27577
396.697	3.14336
396.908	3.70981
397.118	3.43562
397.328	3.11919
397.538	3.95728
397.749	2.24559
397.959	3.96434
398.169	3.6537
398.379	1.48683
398.589	3.52158
398.8	3.03872
399.01	2.91513
399.22	2.61089
399.43	5.15414
399.64	2.69617
399.85	3.44874
400.06	2.94126
400.27	2.08265
400.48	2.77478
400.69	4.43878
400.9	2.4184
401.11	2.24768
401.32	3.75291
401.53	2.46609
401.74	4.66933
401.95	3.89116
402.16	2.28063
402.37	3.18806
402.58	2.52095
402.79	3.51647
403	3.76428
403.209	2.32161
403.419	3.64696
403.629	2.36928
403.839	3.66159
404.049	3.81054
404.258	2.17363
404.468	1.93162
404.678	3.58957
404.888	3.65881
405.097	2.16342
405.307	2.68619
405.517	3.47241
405.727	3.39174
405.936	2.45521
406.146	3.17162
406.356	4.28538
406.565	2.95067
406.775	2.3867
406.984	2.58834
407.194	4.73649
407.404	3.02092
407.613	3.44463
407.823	3.80785
408.032	4.18461
408.242	4.07511
408.451	2.54895
408.661	2.91393
408.87	4.95374
409.08	2.64788
409.289	3.37893
409.499	3.29636
409.708	3.03973
409.918	1.0129
410.127	3.01463
410.336	4.55281
410.546	3.66123
410.755	2.64124
410.964	2.62896
411.174	2.16102
411.383	3.45436
411.592	3.598
411.802	2.08911
412.011	3.90095
412.22	2.95986
412.429	4.62781
412.639	4.35416
412.848	4.13623
413.057	4.53605
413.266	4.35557
413.475	3.09645
413.685	3.92648
413.894	3.93425
414.103	4.33968
414.312	3.86495
414.521	3.11576
414.73	3.03507
414.939	4.94251
415.148	3.51235
415.357	3.27412
415.566	2.6247
415.776	2.83624
415.985	2.6131
416.194	3.81054
416.403	4.67647
416.611	1.87485
416.82	2.44976
417.029	3.14866
417.238	2.41765
417.447	2.22943
417.656	2.51361
417.865	2.28342
418.074	2.61754
418.283	2.73978
418.492	3.72232
418.7	3.40314
418.909	4.20184
419.118	3.00617
419.327	3.2943
419.536	2.93043
419.744	2.321
419.953	3.68613
420.162	3.62548
420.371	2.43294
420.579	2.41938
420.788	3.51651
420.997	3.57499
421.205	3.49968
421.414	3.29109
421.623	3.27597
421.831	2.72828
422.04	3.6838
422.249	2.67444
422.457	3.38473
422.666	2.71347
422.874	3.77371
423.083	3.69463
423.291	3.61534
423.5	3.33569
423.708	3.52541
423.917	3.98198
424.125	3.39114
424.334	3.00942
424.542	5.08014
424.751	4.09521
424.959	3.90665
425.167	4.35105
425.376	4.11492
425.584	3.36426
425.793	3.81644
426.001	2.66144
426.209	3.99488
426.418	2.88311
426.626	3.16501
426.834	2.81974
427.042	3.52589
427.251	2.96409
427.459	4.09945
427.667	3.71243
427.875	2.41003
428.084	2.9967
428.292	4.53345
428.5	4.04354
428.708	2.86965
428.916	2.79535
429.124	3.60379
429.333	3.23903
429.541	3.27396
429.749	3.43447
429.957	3.39271
430.165	5.45255
430.373	2.24037
430.581	3.50751
430.789	4.61502
430.997	3.03761
431.205	2.91332
431.413	3.5545
431.621	3.11756
431.829	4.03337
432.037	3.14164
432.245	3.90197
432.453	3.69376
432.661	3.15821
432.869	5.01745
433.076	2.6264
433.284	3.21622
433.492	3.92247
433.7	4.39671
433.908	3.0562
434.116	3.5034
434.323	3.54012
434.531	3.5758
434.739	3.98433
434.947	4.37043
435.154	4.1233
435.362	3.77046
435.57	3.31805
435.778	3.20894
435.985	3.95487
436.193	3.19985
436.401	4.50538
436.608	3.7185
436.816	3.2405
437.023	5.11584
437.231	5.16572
437.439	3.96252
437.646	4.09371
437.854	3.98437
438.061	4.23892
438.269	3.4097
438.476	4.11841
438.684	3.75606
438.891	3.35968
439.099	3.15952
439.306	2.52164
439.514	2.80391
439.721	3.93539
439.929	3.11649
440.136	3.87697
440.343	3.84717
440.551	3.4007
440.758	5.12004
440.965	4.20772
441.173	3.79323
441.38	3.25714
441.587	3.95881
441.795	3.30874
442.002	3.97085
442.209	4.07214
442.416	4.32912
442.624	4.30726
442.831	4.19141
443.038	3.45905
443.245	3.14308
443.452	3.43545
443.66	4.43192
443.867	3.27439
444.074	3.3056
444.281	3.22852
444.488	3.55346
444.695	3.64399
444.902	3.29237
445.109	4.27023
445.316	3.30616
445.523	3.3472
445.73	2.94577
445.937	3.77041
446.144	4.08993
446.351	4.18736
446.558	3.19707
446.765	4.58947
446.972	4.56671
447.179	3.7422
447.386	4.79531
447.593	3.55237
447.8	4.6232
448.007	3.66447
448.214	3.82827
448.42	3.51104
448.627	4.80741
448.834	3.80468
449.041	3.71409
449.248	3.77553
449.454	4.66181
449.661	5.34457
449.868	3.69743
450.075	3.54896
450.281	2.37401
450.488	3.02583
450.695	3.12191
450.901	3.36717
451.108	3.53715
451.315	4.77087
451.521	3.83049
451.728	4.64457
451.935	3.40698
452.141	3.59157
452.348	3.77074
452.554	3.80193
452.761	3.64733
452.967	5.22935
453.174	4.03313
453.38	4.12373
453.587	2.86399
453.793	4.07686
454	4.71856
454.206	5.80956
454.413	4.93418
454.619	4.3657
454.825	3.3023
455.032	4.59386
455.238	4.91079
455.445	3.07901
455.651	4.16802
455.857	2.48548
456.064	3.93213
456.27	3.70417
456.476	3.77772
456.682	3.08201
456.889	4.29725
457.095	4.59871
457.301	5.99853
457.507	4.05912
457.714	4.1884
457.92	3.98099
458.126	3.23361
458.332	3.71353
458.538	3.43161
458.744	3.66046
458.951	3.53435
459.157	5.13582
459.363	3.74722
459.569	3.6528
459.775	4.46646
459.981	3.49468
460.187	3.91239
460.393	4.40842
460.599	5.01312
460.805	4.19214
461.011	4.23194
461.217	5.18033
461.423	5.18289
461.629	4.10441
461.835	4.90554
462.041	4.08495
462.247	5.80717
462.453	4.02907
462.658	4.30714
462.864	5.05072
463.07	4.47811
463.276	4.55808
463.482	4.48778
463.688	5.51226
463.893	3.76595
464.099	4.08765
464.305	5.65228
464.511	3.81817
464.716	4.24986
464.922	4.98938
465.128	3.68259
465.333	5.8021
465.539	5.0075
465.745	4.33573
465.95	4.56607
466.156	6.69034
466.362	5.46089
466.567	4.40316
466.773	3.9047
466.978	5.77763
467.184	3.61686
467.389	2.6884
467.595	4.93937
467.8	3.75866
468.006	5.74491
468.211	5.44898
468.417	3.60876
468.622	4.87262
468.828	4.97845
469.033	4.84508
469.239	6.96257
469.444	4.05043
469.649	5.34312
469.855	4.41949
470.06	4.7094
470.266	3.64584
470.471	5.07922
470.676	4.72393
470.881	3.22475
471.087	5.75871
471.292	6.3228
471.497	3.48719
471.703	4.31755
471.908	4.03911
472.113	4.68638
472.318	5.30529
472.523	3.68816
472.729	4.93729
472.934	5.01101
473.139	4.24082
473.344	5.12169
473.549	5.76797
473.754	4.00877
473.959	6.4456
474.164	4.11083
474.369	4.39361
474.575	5.28755
474.78	4.70665
474.985	4.30027
475.19	3.14207
475.395	4.0549
475.6	4.41955
475.804	5.60224
476.009	4.6171
476.214	4.50924
476.419	4.19677
476.624	3.13823
476.829	3.99383
477.034	5.03445
477.239	3.91287
477.444	4.63462
477.648	4.87156
477.853	5.01121
478.058	4.25862
478.263	3.8539
478.468	3.57661
478.672	3.92158
478.877	5.55076
479.082	6.08764
479.287	4.76868
479.491	4.57741
479.696	3.60689
479.901	5.26196
480.105	5.02177
480.31	3.90395
480.515	4.35948
480.719	6.28416
480.924	3.94588
481.128	3.58838
481.333	4.46521
481.538	4.56803
481.742	3.8839
481.947	4.54461
482.151	4.68791
482.356	4.72308
482.56	5.86022
482.765	6.1836
482.969	7.66193
483.174	8.67639
483.378	10.26487
483.582	9.98017
483.787	11.04229
483.991	10.9104
484.196	11.03544
484.4	10.78817
484.604	11.24496
484.809	9.58001
485.013	9.36451
485.217	8.30182
485.422	7.32501
485.626	6.64339
485.83	6.40882
486.034	6.30859
486.239	6.53326
486.443	6.57147
486.647	6.55553
486.851	7.41302
487.055	8.11546
487.26	7.39789
487.464	8.10544
487.668	7.41765
487.872	7.47321
488.076	8.0803
488.28	7.48042
488.484	6.94149
488.688	6.85434
488.892	6.87809
489.096	6.51542
489.3	5.69223
489.504	5.43231
489.708	5.61618
489.912	5.47659
490.116	5.30887
490.32	4.59552
490.524	5.53283
490.728	5.82574
490.932	5.94572
491.136	6.09393
491.34	7.06452
491.544	7.25103
491.748	6.74165
491.951	6.91621
492.155	6.44687
492.359	6.51144
492.563	5.54545
492.767	5.25022
492.97	4.98687
493.174	4.50282
493.378	4.88992
493.582	4.37498
493.785	4.89795
493.989	5.09269
494.193	5.08413
494.396	4.63246
494.6	5.4217
494.804	4.71289
495.007	4.35322
495.211	4.35965
495.414	4.59604
495.618	4.75199
495.822	5.67116
496.025	4.52425
496.229	5.26219
496.432	4.16974
496.636	4.58207
496.839	4.51584
497.043	5.91554
497.246	4.67835
497.45	4.42496
497.653	4.49619
497.856	4.92506
498.06	3.92308
498.263	4.48519
498.467	4.38866
498.67	5.54891
498.873	5.09511
499.077	4.45492
499.28	4.35809
499.483	5.04128
499.686	5.42329
499.89	4.98331
500.093	5.36475
500.296	4.24324
500.499	6.04725
500.703	4.75627
500.906	4.93751
501.109	6.27931
501.312	4.76286
501.515	4.72822
501.719	5.3078
501.922	6.0878
502.125	5.10885
502.328	4.8487
502.531	4.04233
502.734	4.94319
502.937	3.31047
503.14	4.98851
503.343	3.95314
503.546	4.64886
503.749	4.12999
503.952	5.20064
504.155	4.10431
504.358	5.38833
504.561	4.77017
504.764	3.92581
504.967	4.80403
505.17	4.8083
505.373	6.18105
505.576	5.00873
505.778	5.42159
505.981	4.27023
506.184	5.79113
506.387	3.49084
506.59	6.44649
506.793	5.73935
506.995	5.14923
507.198	3.40724
507.401	5.00666
507.604	5.19104
507.806	3.95195
508.009	4.18228
508.212	5.25702
508.414	4.2384
508.617	4.11151
508.82	4.72179
509.022	5.93466
509.225	5.05924
509.427	3.51965
509.63	5.92057
509.833	4.71839
510.035	4.54979
510.238	3.55315
510.44	5.84757
510.643	3.12662
510.845	6.5108
511.048	5.11305
511.25	4.458
511.453	4.59365
511.655	5.21397
511.858	4.47907
512.06	5.5425
512.262	4.72221
512.465	5.44339
512.667	4.34869
512.869	4.00307
513.072	5.14362
513.274	5.65804
513.476	5.37261
513.679	5.66448
513.881	4.02601
514.083	6.20787
514.286	4.28813
514.488	4.41883
514.69	4.05622
514.892	3.76251
515.094	5.47445
515.297	4.392
515.499	4.90059
515.701	4.22789
515.903	6.35417
516.105	6.28445
516.307	5.4362
516.509	3.29932
516.711	3.72328
516.913	4.78596
517.116	4.63873
517.318	4.33577
517.52	5.53095
517.722	5.06557
517.924	3.74024
518.126	4.87609
518.328	4.14423
518.529	4.92409
518.731	6.06254
518.933	4.25873
519.135	4.61787
519.337	5.53365
519.539	5.13889
519.741	3.46169
519.943	4.72489
520.145	4.45737
520.346	5.33682
520.548	4.44867
520.75	5.20104
520.952	4.60953
521.153	5.24599
521.355	5.2834
521.557	3.99271
521.759	4.9678
521.96	4.90687
522.162	4.00367
522.364	5.64703
522.565	4.27409
522.767	5.34776
522.969	5.72078
523.17	5.26964
523.372	5.1646
523.573	4.23627
523.775	4.65039
523.977	3.9241
524.178	5.98216
524.38	4.13323
524.581	5.22733
524.783	4.29934
524.984	5.16948
525.186	4.49812
525.387	5.01655
525.589	4.61071
525.79	4.37464
525.991	4.02672
526.193	4.82453
526.394	3.58345
526.596	4.83346
526.797	4.71702
526.998	4.24312
527.2	3.96788
527.401	5.7271
527.602	5.89986
527.803	7.56702
528.005	7.42993
528.206	8.15506
528.407	8.48445
528.608	8.1021
528.81	8.25524
529.011	7.52628
529.212	8.60681
529.413	7.71192
529.614	7.1358
529.815	7.00207
530.017	6.40014
530.218	5.6292
530.419	4.79026
530.62	5.19328
530.821	5.22505
531.022	4.18372
531.223	5.51726
531.424	5.34812
531.625	5.0905
531.826	4.93766
532.027	4.81998
532.228	5.76565
532.429	5.41024
532.63	5.29375
532.831	5.7396
533.032	5.77766
533.233	6.28096
533.433	5.98496
533.634	6.2657
533.835	5.57773
534.036	5.09408
534.237	5.06968
534.438	4.67015
534.638	4.30214
534.839	4.54052
535.04	5.42346
535.241	4.63879
535.441	6.23178
535.642	5.18656
535.843	4.02511
536.043	4.17862
536.244	4.21733
536.445	4.43803
536.645	5.31078
536.846	4.83161
537.047	5.64478
537.247	4.1531
537.448	4.6967
537.648	5.01125
537.849	4.84889
538.049	4.92254
538.25	5.71096
538.451	5.50755
538.651	4.3029
538.851	5.40635
539.052	5.97745
539.252	5.64742
539.453	4.78778
539.653	4.96425
539.854	4.5867
540.054	4.70842
540.254	5.21911
540.455	5.70889
540.655	5.04535
540.855	5.84919
541.056	6.58492
541.256	6.00796
541.456	7.05959
541.657	6.15732
541.857	7.13258
542.057	5.47168
542.257	5.27702
542.458	6.0071
542.658	5.88195
542.858	4.3961
543.058	5.86905
543.258	5.46395
543.458	4.15912
543.659	4.01398
543.859	5.54889
544.059	5.51334
544.259	4.74046
544.459	5.75932
544.659	4.67693
544.859	5.39081
545.059	4.67879
545.259	5.4795
545.459	5.1393
545.659	5.69508
545.859	4.8432
546.059	5.04528
546.259	4.27434
546.459	3.75056
546.659	3.99407
546.859	5.34241
547.059	5.26972
547.258	5.42423
547.458	5.27876
547.658	4.08513
547.858	4.21392
548.058	5.47307
548.258	5.20546
548.457	4.45967
548.657	7.97381
548.857	5.04276
549.057	6.04007
549.256	5.9729
549.456	5.18748
549.656	3.44946
549.855	7.30273
550.055	4.99793
550.255	7.38015
550.454	5.99981
550.654	6.3905
550.853	6.74346
551.053	6.40507
551.253	5.76553
551.452	5.65421
551.652	4.08708
551.851	3.93558
552.051	4.87689
552.25	4.52688
552.45	4.42234
552.649	4.89062
552.849	4.3992
553.048	5.17468
553.248	5.79006
553.447	4.27142
553.646	6.30043
553.846	7.32237
554.045	6.37003
554.244	4.16903
554.444	7.31353
554.643	4.56001
554.842	7.08968
555.042	7.84242
555.241	4.80363
555.44	4.51262
555.64	5.89666
555.839	7.54034
556.038	6.13178
556.237	5.09945
556.436	5.40023
556.636	6.07908
556.835	4.57438
557.034	7.2736
557.233	5.5853
557.432	4.32309
557.631	6.8071
557.83	5.23803
558.029	5.15786
558.228	4.89515
558.427	4.44324
558.626	6.07053
558.825	4.59493
559.024	5.8637
559.223	7.75048
559.422	5.51662
559.621	6.27427
559.82	2.97348
560.019	5.58112
560.218	5.10807
560.417	2.5194
560.616	4.88258
560.815	9.406
561.014	4.14636
561.212	6.85175
561.411	5.6887
561.61	3.71986
561.809	5.15713
562.008	7.4682
562.206	5.39387
562.405	6.28497
562.604	5.47778
562.803	5.83018
563.001	5.37109
563.2	4.00891
563.399	6.18338
563.597	4.26722
563.796	5.73417
563.995	4.17859
564.193	5.99292
564.392	4.90652
564.59	7.8556
564.789	3.34439
564.988	4.93221
565.186	5.50844
565.385	5.05547
565.583	4.81344
565.782	5.08701
565.98	4.79576
566.179	5.21439
566.377	3.86611
566.575	4.35229
566.774	6.33987
566.972	6.17924
567.171	7.61803
567.369	7.02551
567.567	5.58121
567.766	5.62156
567.964	2.94976
568.162	6.20253
568.361	6.76256
568.559	5.38306
568.757	5.9841
568.956	5.52518
569.154	5.41795
569.352	6.59582
569.55	5.42985
569.748	5.34005
569.947	4.52391
570.145	4.56226
570.343	4.37971
570.541	6.60105
570.739	3.71794
570.937	5.47315
571.135	5.66316
571.333	7.19313
571.532	6.99431
571.73	5.34563
571.928	6.35393
572.126	5.62644
572.324	4.69333
572.522	6.86386
572.72	8.28371
572.918	5.33031
573.116	5.73703
573.313	5.41068
573.511	5.15486
573.709	4.87589
573.907	6.27314
574.105	5.16952
574.303	3.36215
574.501	3.68064
574.699	5.61092
574.896	5.64053
575.094	5.90687
575.292	3.81734
575.49	6.35739
575.688	5.42979
575.885	7.03924
576.083	7.58076
576.281	5.74121
576.478	4.83403
576.676	6.25117
576.874	4.27859
577.071	5.2135
577.269	8.67336
577.467	5.55626
577.664	5.68483
577.862	6.87623
578.059	5.00188
578.257	6.74736
578.455	5.60603
578.652	5.89423
578.85	3.53754
579.047	5.93374
579.245	5.68054
579.442	5.75384
579.64	5.82668
579.837	3.46581
580.034	9.11002
580.232	5.52863
580.429	4.4581
580.627	6.88965
580.824	7.54469
581.021	6.60328
581.219	5.73481
581.416	4.90748
581.613	7.80789
581.811	7.71853
582.008	4.76633
582.205	7.1042
582.402	6.51171
582.6	8.19792
582.797	6.35388
582.994	6.90986
583.191	7.49596
583.388	6.12857
583.586	7.57926
583.783	7.90792
583.98	5.09041
584.177	6.21808
584.374	2.24506
584.571	6.15421
584.768	6.04326
584.965	5.79112
585.162	7.34921
585.359	8.88538
585.556	6.16431
585.753	6.81337
585.95	4.4726
586.147	5.41609
586.344	6.88397
586.541	6.19983
586.738	4.64808
586.935	6.19727
587.132	5.4104
587.329	7.9635
587.526	6.08317
587.722	13.28591
587.919	4.23848
588.116	6.76388
588.313	8.38833
588.51	9.42765
588.706	6.0522
588.903	7.10138
589.1	7.49841
589.297	10.29429
589.493	6.30169
589.69	6.89751
589.887	5.39684
590.083	4.64934
590.28	5.22876
590.477	7.6043
590.673	7.11753
590.87	8.6071
591.067	5.74429
591.263	7.13109
591.46	7.10102
591.656	6.23194
591.853	8.22582
592.049	5.15395
592.246	5.50365
592.442	8.30626
592.639	8.0151
592.835	4.93432
593.032	6.73284
593.228	4.20186
593.425	4.31758
593.621	3.96162
593.817	6.43054
594.014	5.33837
594.21	6.26276
594.406	7.68257
594.603	6.59332
594.799	5.43937
594.995	2.78387
595.192	7.44403
595.388	5.78424
595.584	5.37051
595.78	3.8584
595.977	8.81654
596.173	8.26702
596.369	5.38623
596.565	4.29219
596.761	3.79098
596.957	7.27677
597.154	4.54275
597.35	5.15569
597.546	4.86229
597.742	6.63906
597.938	6.3277
598.134	4.6339
598.33	6.67103
598.526	8.81945
598.722	7.16147
598.918	9.23626
599.114	7.40069
599.31	5.17916
599.506	6.94086
599.702	5.24849
599.898	7.29281
600.094	7.9905
600.29	8.04504
600.485	7.85941
600.681	5.97269
600.877	9.33641
601.073	6.48878
601.269	9.82644
601.465	8.67371
601.66	5.17803
601.856	3.79194
602.052	9.04405
602.248	5.72003
602.443	3.38343
602.639	4.22159
602.835	4.82874
603.03	4.57824
603.226	7.267
603.422	4.70176
603.617	5.40996
603.813	5.04962
604.009	4.80526
604.204	7.27678
604.4	3.52703
604.595	6.9791
604.791	4.49476
604.986	5.88627
605.182	4.43474
605.377	5.16328
605.573	5.09906
605.768	6.09911
605.964	6.8968
606.159	7.5791
606.355	8.4902
606.55	6.15422
606.746	7.88371
606.941	6.33593
607.136	9.79405
607.332	11.29311
607.527	4.7573
607.722	7.2419
607.918	6.31818
608.113	4.9812
608.308	7.25298
608.503	6.95758
608.699	6.72859
608.894	6.73942
609.089	4.8091
609.284	6.45228
609.479	5.23105
609.675	6.7328
609.87	5.35527
610.065	6.93286
610.26	7.62719
610.455	7.32988
610.65	5.92667
610.845	6.42034
611.04	7.91182
611.235	6.04146
611.43	5.84213
611.625	4.37544
611.82	9.10256
612.015	5.48353
612.21	9.56612
612.405	4.15817
612.6	10.51411
612.795	9.46614
612.99	8.25188
613.185	4.9761
613.38	5.95929
613.575	7.53234
613.77	12.19037
613.965	4.27587
614.159	5.61095
614.354	9.74627
614.549	9.25524
614.744	8.43696
614.938	5.19876
615.133	4.8077
615.328	9.59307
615.523	9.47193
615.717	12.87012
615.912	6.16992
616.107	7.7747
616.301	6.84093
616.496	5.73972
616.691	10.73724
616.885	8.76633
617.08	12.42326
617.274	10.01042
617.469	11.54008
617.664	8.78768
617.858	6.20086
618.053	8.02104
618.247	7.0584
618.442	3.15649
618.636	10.23437
618.831	6.8315
619.025	6.54014
619.219	12.7774
619.414	1.33464
619.608	7.34283
619.803	5.63644
619.997	11.60066
620.191	10.30365
620.386	8.23374
620.58	7.47921
620.774	4.23449
620.969	4.44856
621.163	7.83888
621.357	5.61072
621.551	7.02525
621.746	8.16648
621.94	7.55651
622.134	14.71119
622.328	12.20687
622.522	4.92115
622.716	9.99122
622.911	9.99804
623.105	9.60198
623.299	8.46569
623.493	14.33709
623.687	6.25647
623.881	7.27296
624.075	9.08747
624.269	10.13637
624.463	3.98079
624.657	3.98599
624.851	9.00339
625.045	9.50264
625.239	9.11643
625.433	6.10831
625.627	10.36839
625.821	6.40138
626.015	5.93229
626.209	7.00671
626.403	4.59802
626.596	8.11216
626.79	8.48472
626.984	4.68473
627.178	8.13476
627.372	8.04975
627.565	8.8932
627.759	4.4996
627.953	4.42051
628.147	8.35874
628.34	8.65704
628.534	11.78289
628.728	6.7948
628.921	9.59342
629.115	9.17742
629.309	9.46723
629.502	9.94308
629.696	8.55176
629.89	7.96608
630.083	8.51822
630.277	9.16256
630.47	12.00229
630.664	7.68559
630.857	4.93576
631.051	10.16147
631.244	10.75229
631.438	9.92719
631.631	6.38383
631.825	10.8314
632.018	9.57567
632.212	12.3396
632.405	11.35751
632.598	6.23525
632.792	8.62427
632.985	2.93643
633.178	7.25799
633.372	7.96888
633.565	7.74447
633.758	10.82333
633.952	6.20476
634.145	6.13801
634.338	8.19187
634.531	7.40309
634.724	6.51601
634.918	8.75785
635.111	7.26574
635.304	7.18208
635.497	13.70213
635.69	9.23536
635.883	11.13496
636.077	5.70855
636.27	9.77327
636.463	9.31409
636.656	9.37235
636.849	7.83168
637.042	9.66856
637.235	13.01554
637.428	10.42368
637.621	9.90285
637.814	12.71677
638.007	12.64995
638.2	12.90518
638.393	14.25582
638.586	6.21499
638.778	7.50477
638.971	9.60516
639.164	13.30243
639.357	10.09165
639.55	12.93269
639.743	11.45804
639.935	10.9191
640.128	14.58093
640.321	11.14209
640.514	10.23131
640.707	16.60226
640.899	11.68462
641.092	5.19855
641.285	29.88756
641.477	3.91137
641.67	15.59597
641.863	13.5159
642.055	10.24355
642.248	10.17523
642.441	8.97362
642.633	11.51813
642.826	14.23303
643.018	13.9469
643.211	14.91643
643.403	14.90022
643.596	15.78759
643.788	14.72898
643.981	9.36536
644.173	13.27833
644.366	9.37012
644.558	5.81113
644.751	13.04992
644.943	6.15784
645.135	15.30822
645.328	15.75259
645.52	12.40109
645.712	13.19031
645.905	19.88354
646.097	7.27638
646.289	11.44539
646.482	16.39523
646.674	9.07918
646.866	13.93943
647.058	12.15558
647.251	7.92149
647.443	9.33869
647.635	10.50849
647.827	8.36434
648.019	7.9855
648.211	11.2863
648.404	11.17591
648.596	15.6134
648.788	11.36988
648.98	11.8859
649.172	11.63688
649.364	12.08033
649.556	5.56842
649.748	17.86748
649.94	8.48676
650.132	12.71437
650.324	8.15775
650.516	8.37326
650.708	14.24684
650.9	7.1286
651.092	9.41064
651.284	6.76874
651.476	7.82229
651.667	12.10995
651.859	14.42851
652.051	10.78776
652.243	10.99112
652.435	9.4637
652.627	12.19771
652.818	12.07344
653.01	6.00361
653.202	8.50618
653.394	10.31159
653.585	12.71751
653.777	24.8166
653.969	15.27539
654.16	14.8837
654.352	7.95043
654.544	10.71351
654.735	15.15918
654.927	11.5936
655.118	16.81059
655.31	13.75079
655.502	14.29775
655.693	9.46118
655.885	13.79472
656.076	16.35767
656.268	11.74661
656.459	15.42685
656.651	16.15932
656.842	10.42934
657.034	9.17901
657.225	13.70966
657.416	15.73366
657.608	15.45816
657.799	10.50225
657.99	13.65669
658.182	8.84353
658.373	8.42151
658.564	12.87923
658.756	10.83568
658.947	9.83834
659.138	7.37687
659.33	8.76371
659.521	8.1889
659.712	10.32788
659.903	9.85599
660.094	8.69887
660.286	5.9534
660.477	17.04926
660.668	12.49693
660.859	11.43854
661.05	7.45816
661.241	13.29856
661.432	13.5418
661.623	10.61293
661.814	10.66341
662.006	6.52448
662.197	13.01711
662.388	15.74701
662.579	12.50315
662.77	17.15012
662.96	21.56247
663.151	15.20358
663.342	7.41729
663.533	13.80839
663.724	12.02212
663.915	18.50922
664.106	12.25
664.297	19.10165
664.488	15.15897
664.678	10.75311
664.869	15.0385
665.06	16.8072
665.251	13.34416
665.442	14.89923
665.632	9.61945
665.823	19.70217
666.014	3.32641
666.204	15.1988
666.395	18.30225
666.586	23.70273
666.776	16.3207
666.967	19.67909
667.158	13.31125
667.348	18.56248
667.539	9.06607
667.729	16.00815
667.92	10.02036
668.111	17.0768
668.301	15.02563
668.492	11.89406
668.682	12.93814
668.873	11.65615
669.063	9.07475
669.253	13.37625
669.444	17.24438
669.634	12.37344
669.825	20.38786
670.015	16.54232
670.206	10.1395
670.396	21.66121
670.586	12.9857
670.777	15.49419
670.967	6.26231
671.157	13.43004
671.347	11.89082
671.538	20.04063
671.728	15.49426
671.918	20.73177
672.108	17.39922
672.299	12.53725
672.489	15.72461
672.679	11.43202
672.869	16.89378
673.059	21.10023
673.249	16.78973
673.44	10.6686
673.63	13.79491
673.82	17.51149
674.01	10.73717
674.2	15.47094
674.39	26.15844
674.58	16.7291
674.77	15.09401
674.96	14.22765
675.15	31.5722
675.34	18.4372
675.53	14.42499
675.72	12.12713
675.91	9.61478
676.099	22.53891
676.289	23.52517
676.479	18.35709
676.669	12.34052
676.859	16.76618
677.049	10.63381
677.238	14.50637
677.428	21.26354
677.618	16.1714
677.808	19.54277
677.997	16.21685
678.187	9.85164
678.377	13.75482
678.567	12.0422
678.756	12.32863
678.946	13.0485
679.136	8.41944
679.325	10.80762
679.515	9.87182
679.704	8.63192
679.894	15.44438
680.084	14.15235
680.273	18.74534
680.463	9.71615
680.652	10.6056
680.842	12.88537
681.031	17.31042
681.221	10.14228
681.41	15.84451
681.6	13.38091
681.789	16.47533
681.978	19.65697
682.168	15.04121
682.357	15.83037
682.547	18.06139
682.736	15.73135
682.925	20.36538
683.115	19.98749
683.304	18.907
683.493	17.2519
683.682	17.50125
683.872	17.88978
684.061	21.51392
684.25	18.51325
684.439	23.80562
684.629	19.05578
684.818	30.55471
685.007	15.87334
685.196	14.15021
685.385	22.5347
685.574	18.288
685.763	18.36345
685.952	16.93127
686.142	11.35978
686.331	22.55373
686.52	8.348
686.709	23.79301
686.898	23.49405
687.087	19.79705
687.276	23.70177
687.465	20.15002
687.654	14.58114
687.842	23.10037
688.031	10.11425
688.22	22.84108
688.409	17.594
688.598	17.75539
688.787	29.38594
688.976	18.01089
689.165	25.82048
689.353	15.38363
689.542	19.63257
689.731	21.50642
689.92	27.24132
690.108	22.33637
690.297	16.35753
690.486	17.92607
690.675	22.14535
690.863	27.08974
691.052	25.43608
691.241	20.08173
691.429	20.15624
691.618	24.93181
691.806	12.28511
691.995	17.55112
692.184	18.96421
692.372	15.97772
692.561	19.76358
692.749	18.39383
692.938	31.06044
693.126	21.48537
693.315	16.32159
693.503	21.77766
693.692	22.05096
693.88	25.15219
694.068	30.94117
694.257	18.28881
694.445	20.84953
694.634	8.97209
694.822	25.04876
695.01	24.69311
695.199	27.25673
695.387	27.19386
695.575	25.91801
695.763	19.72127
695.952	18.3092
696.14	11.34413
696.328	16.08971
696.516	19.94282
696.705	20.42156
696.893	19.84949
697.081	9.87771
697.269	21.34715
697.457	12.40426
697.645	11.60535
697.833	20.86705
698.021	12.39936
698.21	14.65104
698.398	15.93842
698.586	10.84197
698.774	10.82498
698.962	15.12315
699.15	11.53134
699.338	9.59565
699.526	18.54889
699.714	13.49272
699.901	15.3885
700.089	22.76659
700.277	14.09198
700.465	16.74738
700.653	22.59616
700.841	20.99928
701.029	15.33123
701.217	25.44256
701.404	20.82248
701.592	27.99755
701.78	29.85642
701.968	18.52652
702.155	17.75277
702.343	12.63851
702.531	28.4176
702.718	22.4393
702.906	18.66974
703.094	16.40534
703.281	27.79168
703.469	18.63309
703.657	27.64689
703.844	39.19968
704.032	29.80327
704.219	17.17048
704.407	23.25507
704.595	29.92874
704.782	21.83263
704.97	20.02861
705.157	18.61061
705.345	31.67371
705.532	37.71267
705.719	23.27636
705.907	29.51022
706.094	22.62323
706.282	32.94929
706.469	19.45621
706.656	22.35202
706.844	19.66172
707.031	27.32556
707.218	22.99553
707.406	31.75781
707.593	26.40317
707.78	26.55247
707.968	22.26983
708.155	16.97435
708.342	25.53957
708.529	27.11728
708.716	23.55342
708.904	34.00093
709.091	27.29824
709.278	16.94495
709.465	34.58054
709.652	34.49547
709.839	32.13667
710.026	25.01035
710.213	13.43262
710.4	25.40826
710.587	28.99108
710.774	32.85555
710.961	32.15305
711.148	24.4729
711.335	30.87809
711.522	23.29994
711.709	26.06541
711.896	38.70594
712.083	30.26846
712.27	18.91092
712.457	25.1581
712.644	15.68865
712.831	38.42385
713.017	25.49425
713.204	29.62874
713.391	20.75545
713.578	33.61443
713.765	34.07336
713.951	27.77653
714.138	46.26507
714.325	29.98746
714.512	25.05877
714.698	20.95664
714.885	36.22851
715.072	27.78871
715.258	26.39594
715.445	21.42442
715.631	34.38031
715.818	9.58344
716.005	21.12587
716.191	29.69603
716.378	24.17156
716.564	31.6899
716.751	20.51487
716.937	23.2562
717.124	35.38096
717.31	21.02055
717.497	37.495
717.683	21.71672
717.869	46.0652
718.056	24.18302
718.242	30.35296
718.429	27.31842
718.615	20.10756
718.801	28.53348
718.988	36.10866
719.174	32.30709
719.36	27.7029
719.547	39.40839
719.733	30.65827
719.919	32.1747
720.105	33.32732
720.291	27.73624
720.478	29.69405
720.664	27.62889
720.85	25.66086
721.036	50.91795
721.222	41.1019
721.408	28.67749
721.595	46.37006
721.781	43.64601
721.967	38.77574
722.153	42.52566
722.339	34.34883
722.525	32.6687
722.711	22.55963
722.897	18.67369
723.083	27.87395
723.269	38.68149
723.455	50.53857
723.641	55.24345
723.827	32.022
724.012	34.81156
724.198	26.88789
724.384	41.416
724.57	35.04231
724.756	19.46689
724.942	14.73049
725.127	39.95373
725.313	44.78102
725.499	42.02974
725.685	47.15324
725.87	34.20655
726.056	23.61743
726.242	43.42415
726.428	19.99496
726.613	40.01172
726.799	29.94968
726.985	22.06648
727.17	18.71428
727.356	46.68534
727.541	24.25359
727.727	30.55793
727.913	37.45093
728.098	27.43105
728.284	38.51755
728.469	21.56486
728.655	25.55523
728.84	37.79176
729.026	38.36477
729.211	39.34377
729.397	33.92828
729.582	36.71913
729.767	30.3615
729.953	33.43761
730.138	40.75168
730.323	13.7377
730.509	22.90624
730.694	46.96619
730.879	35.86438
731.065	32.53659
731.25	51.9865
731.435	37.29561
731.621	19.21112
731.806	26.09471
731.991	34.63166
732.176	20.1543
732.361	42.65113
732.547	33.73545
732.732	19.61715
732.917	53.42274
733.102	22.28174
733.287	26.02901
733.472	32.6445
733.657	33.59473
733.842	20.54245
734.027	29.86332
734.212	33.71233
734.397	26.57286
734.582	33.68337
734.767	42.65142
734.952	49.75761
735.137	11.58575
735.322	47.08353
735.507	38.61156
735.692	35.75269
735.877	54.52528
736.062	53.24608
736.247	40.50819
736.431	33.90616
736.616	46.69848
736.801	39.62804
736.986	33.32728
737.171	26.17057
737.355	22.5439
737.54	46.42288
737.725	34.73147
737.909	63.32053
738.094	28.98456
738.279	42.65179
738.463	32.21498
738.648	41.57489
738.833	37.58334
739.017	54.6049
739.202	30.57337
739.386	34.34221
739.571	26.50529
739.756	40.48101
739.94	36.12323
740.125	44.83083
740.309	28.31477
740.494	44.5424
740.678	37.56934
740.863	41.21312
741.047	37.92329
741.231	50.32719
741.416	28.96374
741.6	52.8314
741.785	29.975
741.969	43.83696
742.153	50.53334
742.338	16.98482
742.522	37.68422
742.706	47.71756
742.89	23.92355
743.075	37.82646
743.259	55.59267
743.443	46.60883
743.627	49.90397
743.812	61.29256
743.996	19.85018
744.18	34.475
744.364	32.94952
744.548	65.04721
744.732	37.48551
744.916	46.61775
745.1	46.22027
745.285	36.82804
745.469	43.44249
745.653	59.34282
745.837	23.15393
746.021	64.77628
746.205	51.24771
746.389	41.64231
746.573	34.83442
746.757	56.51713
746.94	34.52454
747.124	52.58477
747.308	27.43083
747.492	51.70842
747.676	31.35137
747.86	65.6431
748.044	32.54081
748.227	18.39366
748.411	81.68659
748.595	41.63669
748.779	29.76425
748.963	45.79724
749.146	43.77673
749.33	29.19677
749.514	28.03402
749.697	54.7856
749.881	35.16737
750.065	27.44137
750.248	40.92659
750.432	68.2018
750.616	39.74446
750.799	25.89121
750.983	67.61198
751.166	73.25709
751.35	24.28432
751.533	46.95622
751.717	53.37182
751.9	59.31531
752.084	36.97706
752.267	29.00408
752.451	32.98759
752.634	40.99904
752.818	47.34173
753.001	50.65401
753.184	53.57315
753.368	44.93332
753.551	4.72076
753.734	31.60157
753.918	65.01927
754.101	32.87486
754.284	49.60785
754.467	35.28834
754.651	33.81688
754.834	32.38122
755.017	54.36158
755.2	52.54023
755.384	27.61615
755.567	51.88542
755.75	52.36985
755.933	38.4278
756.116	42.92951
756.299	33.52313
756.482	29.64558
756.665	48.34889
756.848	42.02827
757.032	48.83961
757.215	23.92456
757.398	31.70075
757.581	32.56457
757.764	76.78178
757.947	40.51179
758.129	56.31111
758.312	9.37923
758.495	38.15703
758.678	38.77274
758.861	37.91282
759.044	66.74212
759.227	30.08411
759.41	32.69718
759.592	50.00493
759.775	42.05912
759.958	57.83172
760.141	27.05374
760.324	73.63572
760.506	60.54719
760.689	53.18517
760.872	71.31195
761.054	51.27688
761.237	36.1154
761.42	47.05367
761.602	53.54673
761.785	47.62497
761.968	55.43877
762.15	66.51731
762.333	40.78345
762.515	45.50834
762.698	34.37621
762.88	50.47002
763.063	41.71187
763.245	47.66186
763.428	28.6087
763.61	32.6988
763.793	25.75356
763.975	42.0373
764.158	35.79937
764.34	33.5342
764.522	28.52739
764.705	37.95608
764.887	57.93812
765.069	23.31775
765.252	50.6134
765.434	54.45819
765.616	45.15313
765.799	34.83666
765.981	54.18925
766.163	34.92071
766.345	56.45277
766.528	37.53491
766.71	12.86175
766.892	44.32217
767.074	60.95498
767.256	38.52417
767.438	68.0979
767.62	50.07181
767.802	75.22539
767.985	54.7971
768.167	74.13235
768.349	33.78699
768.531	55.89966
768.713	50.08341
768.895	57.72147
769.077	50.90035
769.259	88.68567
769.441	118.71207
769.623	57.88122
769.804	70.12182
769.986	68.07104
770.168	85.64348
770.35	103.23211
770.532	71.59691
770.714	79.00057
770.896	83.74668
771.077	31.11513
771.259	84.28063
771.441	70.34186
771.623	95.47379
771.804	113.17477
771.986	33.37743
772.168	53.77847
772.35	89.99596
772.531	116.18173
772.713	64.51474
772.894	95.15615
773.076	63.65444
773.258	58.32346
773.439	91.30312
773.621	105.30229
773.802	43.44297
773.984	52.73472
774.166	71.64865
774.347	102.95837
774.529	92.92637
774.71	24.4806
774.891	63.19294
775.073	59.59324
775.254	101.12335
775.436	54.69857
775.617	111.27988
775.799	59.05058
775.98	101.01427
776.161	105.99681
776.343	108.63408
776.524	65.09281
776.705	60.09322
776.886	30.5137
777.068	75.34793
777.249	131.52778
777.43	117.76666
777.611	42.52588
777.793	59.17351
777.974	106.02446
778.155	58.83053
778.336	52.3566
778.517	119.18605
778.698	50.19072
778.879	24.92708
779.061	14.67188
779.242	78.74396
779.423	80.58589
779.604	59.27979
779.785	68.83287
779.966	70.47882
780.147	96.87737
780.328	94.03011
780.509	134.85852
780.69	85.18494
780.871	55.02627
781.051	37.49974
781.232	74.58855
781.413	73.8334
781.594	63.20448
781.775	58.30086
781.956	51.53502
782.137	27.24184
782.317	53.38707
782.498	72.80193
782.679	65.09061
782.86	71.6749
783.04	55.31226
783.221	79.13185
783.402	120.51137
783.583	75.1184
783.763	85.24002
783.944	59.11423
784.124	36.16653
784.305	110.53933
784.486	80.28756
784.666	67.4348
784.847	32.18519
785.027	130.2225
785.208	54.26652
785.388	54.72801
785.569	55.3946
785.749	65.34187
785.93	55.26648
786.11	33.17487
786.291	82.85398
786.471	75.79102
786.652	88.92144
786.832	68.32909
787.012	76.29162
787.193	40.95126
787.373	69.48101
787.553	57.8256
787.734	76.23216
787.914	60.39753
788.094	80.13176
788.275	76.23772
788.455	64.32957
788.635	39.30935
788.815	72.9209
788.995	47.48946
789.176	37.83347
789.356	53.52358
789.536	61.95783
789.716	82.73084
789.896	52.83457
790.076	57.69889
790.256	73.77598
790.436	21.41505
790.616	50.00493
790.796	76.28659
790.976	59.52003
791.156	53.8259
791.336	88.34158
791.516	78.27063
791.696	64.48118
791.876	39.61734
792.056	74.06467
792.236	90.86566
792.416	85.35157
792.596	80.12345
792.776	79.09109
792.956	87.20602
793.135	102.88462
793.315	46.64619
793.495	99.49069
793.675	83.69095
793.854	89.27283
794.034	90.62505
794.214	42.17676
794.394	86.20373
794.573	96.19473
794.753	73.8999
794.933	50.41566
795.112	73.21818
795.292	87.01755
795.472	112.88364
795.651	40.38697
795.831	65.47458
796.01	60.31092
796.19	65.47168
796.369	65.96018
796.549	80.42391
796.728	62.77819
796.908	38.42943
797.087	46.16981
797.267	61.13817
797.446	45.31843
797.626	83.16487
797.805	82.40626
797.984	51.14034
798.164	84.92147
798.343	48.64872
798.522	76.81482
798.702	72.42945
798.881	42.13108
799.06	63.33631
799.239	27.40469
799.419	49.32781
799.598	111.04246
799.777	85.19694
799.956	104.42838
800.136	65.6143
800.315	50.06223
800.494	80.6323
800.673	93.46251
800.852	85.30526
801.031	95.00107
801.21	80.46397
801.389	64.13257
801.568	74.31945
801.747	120.38037
801.926	72.88349
802.105	111.06427
802.284	64.07732
802.463	109.12987
802.642	81.64898
802.821	76.95072
803	106.03764
803.179	90.61899
803.358	104.7641
803.537	57.94796
803.716	72.81175
803.895	59.67719
804.073	68.10449
804.252	57.14346
804.431	85.03767
804.61	65.90951
804.789	95.83259
804.967	57.00607
805.146	54.498
805.325	116.43715
805.503	85.70318
805.682	34.63737
805.861	137.08677
806.039	104.63256
806.218	57.05908
806.397	78.36493
806.575	72.48276
806.754	80.95419
806.932	49.45652
807.111	108.7636
807.289	97.91312
807.468	73.96117
807.646	97.81344
807.825	86.66971
808.003	79.80014
808.182	97.13976
808.36	81.53839
808.539	56.21104
808.717	109.092
808.895	56.51123
809.074	84.89662
809.252	72.06409
809.43	89.5479
809.609	101.02611
809.787	116.01484
809.965	71.47841
810.144	74.56663
810.322	69.36796
810.5	88.22556
810.678	67.31132
810.856	133.13745
811.035	101.3542
811.213	92.79593
811.391	109.75256
811.569	77.38173
811.747	148.44701
811.925	102.54379
812.103	56.24991
812.281	70.82536
812.459	125.84896
812.637	128.16738
812.816	95.60762
812.994	135.84639
813.171	109.83497
813.349	88.01524
813.527	110.27012
813.705	116.36787
813.883	143.46232
814.061	104.64132
814.239	127.66745
814.417	140.51644
814.595	88.49012
814.773	86.66024
814.95	86.60771
815.128	91.92048
815.306	81.66482
815.484	70.39369
815.662	57.09574
815.839	48.77506
816.017	62.40192
816.195	102.05927
816.372	71.52067
816.55	96.40035
816.728	122.57266
816.905	78.40848
817.083	132.08969
817.261	78.54745
817.438	140.27385
817.616	135.58608
817.793	65.01928
817.971	101.51191
818.148	97.49796
818.326	123.04192
818.503	88.68674
818.681	114.7044
818.858	67.74822
819.036	77.50994
819.213	84.89741
819.391	60.99931
819.568	55.69099
819.745	55.78377
819.923	99.44785
820.1	61.06701
820.277	58.04778
820.455	65.13396
820.632	69.96452
820.809	69.67248
820.986	45.4787
821.164	35.22852
821.341	32.40162
821.518	42.26981
821.695	30.60192
821.872	27.99463
822.05	24.84014
822.227	19.26656
822.404	20.8522
822.581	26.39135
822.758	21.91958
822.935	22.96496
823.112	27.03091
823.289	22.8435
823.466	29.1402
823.643	28.90376
823.82	36.24733
823.997	34.39434
824.174	43.95794
824.351	55.52464
824.528	54.87082
824.705	50.42536
824.882	55.40569
825.059	70.30652
825.236	49.17855
825.412	49.60583
825.589	59.8712
825.766	77.51668
825.943	50.74904
826.12	59.33309
826.296	40.70679
826.473	46.79692
826.65	45.13511
826.827	54.27478
827.003	34.88938
827.18	40.2161
827.357	46.84079
827.533	41.29162
827.71	23.95662
827.887	37.5402
828.063	44.36843
828.24	38.25925
828.416	54.28144
828.593	46.50917
828.769	67.0567
828.946	77.07117
829.122	81.66802
829.299	72.94401
829.475	48.69662
829.652	74.57265
829.828	117.87217
830.005	72.03183
830.181	103.72317
830.357	75.26206
830.534	101.43096
830.71	76.78349
830.886	93.72439
831.063	90.90638
831.239	117.78045
831.415	55.32601
831.592	111.80011
831.768	72.26691
831.944	63.26121
832.12	114.10092
832.296	104.22629
832.473	90.81442
832.649	62.10815
832.825	84.29446
833.001	49.99747
833.177	72.90507
833.353	66.52843
833.529	37.7822
833.705	55.36091
833.881	40.70801
834.058	40.19386
834.234	45.47874
834.41	44.77886
834.586	36.61565
834.761	46.28027
834.937	50.23218
835.113	56.8172
835.289	49.30569
835.465	65.39805
835.641	56.41053
835.817	65.80228
835.993	112.171
836.169	56.4051
836.344	83.67634
836.52	94.90735
836.696	90.97515
836.872	70.04243
837.048	176.42501
837.223	78.4188
837.399	145.7247
837.575	115.69965
837.75	107.91692
837.926	140.41887
838.102	214.44543
838.277	169.02854
838.453	210.89477
838.628	203.64904
838.804	88.96122
838.98	208.73039
839.155	92.4523
839.331	129.34605
839.506	99.72251
839.682	98.72748
839.857	116.03336
840.033	137.85019
840.208	67.0171
840.384	35.80877
840.559	68.13655
840.734	111.34686
840.91	158.99214
841.085	95.94648
841.26	95.25584
841.436	89.09685
841.611	90.16269
841.786	144.16753
841.962	179.68815
842.137	112.17559
842.312	80.02489
842.487	93.79547
842.663	82.19112
842.838	97.73856
843.013	276.4607
843.188	147.53055
843.363	158.76169
843.538	273.71938
843.714	264.417
843.889	258.85689
844.064	265.74303
844.239	220.55299
844.414	277.56252
844.589	182.05141
844.764	308.3235
844.939	279.52828
845.114	374.55671
845.289	321.2477
845.464	367.48975
845.639	282.24577
845.814	179.07154
845.989	173.94506
846.163	180.84051
846.338	237.42779
846.513	324.74423
846.688	212.35938
846.863	214.24827
847.038	197.4017
847.212	227.05143
847.387	230.39221
847.562	237.08038
847.737	246.44291
847.911	114.78577
848.086	131.27974
848.261	433.91102
848.435	190.09917
848.61	306.42072
848.785	147.27876
848.959	265.82166
849.134	382.16639
849.308	492.9276
849.483	216.3086
849.658	325.8981
849.832	213.49806
850.007	171.14605
850.181	403.52323
850.356	161.70854
850.53	377.22131
850.705	149.03225
850.879	85.21204
851.053	233.0668
851.228	186.1725
851.402	277.75128
851.577	314.32153
851.751	313.70875
851.925	240.15648
852.099	99.16404
852.274	169.08218
852.448	208.30993
852.622	289.84854
852.797	218.22863
852.971	225.8568
853.145	249.99125
853.319	462.12663
853.493	355.53159
853.668	208.75605
853.842	381.44032
854.016	309.33033
854.19	415.74939
854.364	255.23142
854.538	264.84483
854.712	338.88876
854.886	238.20286
855.06	202.02384
855.234	87.5585
855.408	385.18078
855.582	331.75019
855.756	325.53378
855.93	376.08298
856.104	275.30092
856.278	336.15152
856.452	239.78453
856.626	282.05175
856.8	451.62105
856.973	306.77456
857.147	250.69337
857.321	269.64795
857.495	338.19725
857.669	241.10282
857.842	207.09342
858.016	365.72474
858.19	149.56273
858.364	591.82476
858.537	214.1411
858.711	239.6628
858.885	201.18522
859.058	172.07339
859.232	126.32555
859.405	125.6183
859.579	331.09183
859.753	262.87645
859.926	169.42832
860.1	116.41778
860.273	225.9667
860.447	409.4145
860.62	200.80003
860.794	437.73371
860.967	255.63113
861.141	349.17749
861.314	478.3198
861.487	284.28285
861.661	364.28763
861.834	413.08562
862.008	304.09593
862.181	255.67865
862.354	255.63676
862.528	296.50933
862.701	170.86053
862.874	130.81539
863.047	195.23429
863.221	226.3472
863.394	99.81192
863.567	335.54589
863.74	85.03731
863.913	345.47883
864.087	277.43674
864.26	301.30648
864.433	214.91147
864.606	468.87633
864.779	234.64407
864.952	104.59622
865.125	203.72851
865.298	231.07074
865.471	239.54263
865.644	403.32247
865.817	350.19431
865.99	304.40818
866.163	385.74485
866.336	185.98683
866.509	229.00882
866.682	197.72984
866.855	325.32951
867.028	128.6651
867.2	288.046
867.373	79.5863
867.546	258.02201
867.719	421.43281
867.892	262.30898
868.064	152.20413
868.237	273.07749
868.41	260.0668
868.583	138.1355
868.755	141.72826
868.928	203.42196
869.101	451.67331
869.273	308.47907
869.446	266.18855
869.619	341.5095
869.791	215.59795
869.964	331.88635
870.136	306.33944
870.309	254.79495
870.481	242.26652
870.654	125.81856
870.826	250.11796
870.999	204.02149
871.171	287.45228
871.344	193.95669
871.516	239.03882
871.689	167.68428
871.861	258.82156
872.033	177.37016
872.206	208.25574
872.378	313.13352
872.55	204.75528
872.723	127.58125
872.895	187.11767
873.067	339.434
873.24	311.39906
873.412	183.51173
873.584	221.48307
873.756	209.14461
873.928	257.0901
874.101	246.00454
874.273	265.1667
874.445	94.02518
874.617	140.27915
874.789	233.36893
874.961	203.43585
875.133	271.65993
875.305	227.70972
875.477	147.73803
875.649	118.59983
875.821	157.7466
875.993	339.94659
876.165	151.79805
876.337	245.50601
876.509	225.06356
876.681	228.01707
876.853	258.1303
877.025	241.03568
877.197	166.84853
877.369	139.13062
877.541	274.99534
877.712	84.0521
877.884	141.66524
878.056	242.30706
878.228	145.70337
878.4	262.47018
878.571	134.30189
878.743	94.65213
878.915	204.59893
879.086	131.0157
879.258	161.37847
879.43	138.59145
879.601	118.5268
879.773	129.19556
879.945	35.60838
880.116	52.11878
880.288	34.90076
880.459	37.98841
880.631	29.52428
880.802	33.81541
880.974	32.81298
881.145	23.21555
881.317	31.23359
881.488	23.61033
881.66	27.15933
881.831	23.87411
882.002	35.71733
882.174	27.26752
882.345	36.98443
882.517	22.40654
882.688	49.33131
882.859	42.64856
883.03	68.73706
883.202	68.88219
883.373	65.10333
883.544	66.82774
883.715	102.54423
883.887	91.79994
884.058	79.74407
884.229	110.97986
884.4	107.60111
884.571	123.99978
884.742	106.23571
884.914	109.51111
885.085	148.16589
885.256	185.53402
885.427	153.08032
885.598	175.85113
885.769	171.88051
885.94	182.11759
886.111	122.03969
886.282	207.18433
886.453	155.98627
886.624	113.69922
886.795	206.29593
886.966	156.7715
887.136	217.23493
887.307	134.76205
887.478	277.21631
887.649	228.67386
887.82	227.19339
887.991	194.76561
888.161	260.23745
888.332	227.53841
888.503	123.92335
888.674	309.88937
888.844	336.91248
889.015	268.82653
889.186	128.07681
889.356	342.62576
889.527	119.46475
889.698	480.54837
889.868	177.79084
890.039	254.22516
890.209	194.06248
890.38	276.95848
890.551	219.06342
890.721	318.31859
890.892	278.81135
891.062	207.30246
891.233	242.31658
891.403	179.06544
891.574	161.58871
891.744	206.60716
891.914	223.51302
892.085	206.90324
892.255	84.17488
892.425	299.06721
892.596	225.77087
892.766	227.4195
892.936	290.64837
893.107	244.29366
893.277	153.06879
893.447	108.65499
893.618	76.27196
893.788	163.53961
893.958	94.67852
894.128	85.64112
894.298	95.94302
894.468	125.67445
894.639	61.26242
894.809	43.05288
894.979	68.25553
895.149	84.72843
895.319	68.41437
895.489	92.09324
895.659	131.50748
895.829	87.11991
895.999	97.8125
896.169	77.92766
896.339	103.21024
896.509	204.02333
896.679	212.884
896.849	229.73002
897.019	294.21666
897.189	208.59965
897.358	185.29901
897.528	304.31822
897.698	107.59303
897.868	251.90038
898.038	420.76794
898.208	387.97342
898.377	115.8165
898.547	353.22725
898.717	484.43075
898.886	256.68518
899.056	427.38507
899.226	469.94169
899.395	322.66024
899.565	461.50072
899.735	316.53499
899.904	477.14708
900.074	402.958
900.244	187.37349
900.413	619.89788
900.583	142.74986
900.752	283.18371
900.922	420.53804
901.091	41.51047
901.261	349.71696
901.43	355.7345
901.599	337.20021
901.769	700.20461
901.938	478.88633
902.108	360.52463
902.277	456.22891
902.446	134.91531
902.616	160.04153
902.785	214.90907
902.954	369.93853
903.124	221.73648
903.293	169.66512
903.462	97.05955
903.631	139.67051
903.801	102.41062
903.97	52.57928
904.139	95.55984
904.308	73.45039
904.477	64.9065
904.646	41.88232
904.816	60.69584
904.985	96.043
905.154	157.99687
