Data from WindowProjectSample2_Transmission__5__00010.txt Node

Date: Sat May 03 22:32:16 EDT 2025
User: jessi
Spectrometer: SR400872
Trigger mode: 0
Integration Time (sec): 5.000010E-1
Scans to average: 10
Electric dark correction enabled: true
Nonlinearity correction enabled: true
Boxcar width: 0
XAxis mode: Wavelengths
Number of Pixels in Spectrum: 3648
>>>>>Begin Spectral Data<<<<<
184.909	-6595.59793
185.132	7912.89629
185.355	19136.77962
185.578	8604.09736
185.801	-810.71432
186.024	-2091.86551
186.247	-4472.4661
186.47	-1944.62973
186.693	-112.85887
186.916	-145.73155
187.139	-4464.71517
187.362	-15132.85775
187.585	2133.71141
187.808	-3511.93946
188.031	143.28403
188.254	3298.77091
188.476	-1470.11475
188.699	-36157.76347
188.922	3772.19256
189.145	-7391.38612
189.368	1199.75667
189.591	1119.78899
189.813	1428.34563
190.036	-3820.01362
190.259	1970.8275
190.482	9713.22758
190.705	3309.11786
190.927	13276.68346
191.15	5904.7351
191.373	1797.20483
191.595	5309.48661
191.818	3001.54458
192.041	489.86583
192.263	2764.13189
192.486	-1786.88417
192.709	-11566.23108
192.931	6066.72199
193.154	-15471.39889
193.377	5911.01458
193.599	11964.97212
193.822	-1693.79421
194.044	934.67466
194.267	1151.75387
194.489	-64.15758
194.712	-6125.82688
194.934	4693.85814
195.157	-3730.01596
195.379	896.28412
195.602	1787.2513
195.824	10290.6156
196.047	4430.04643
196.269	-10644.36531
196.492	-11729.89603
196.714	-4202.16096
196.936	-4324.81695
197.159	6314.58101
197.381	-746.92683
197.604	2104.75359
197.826	-14441.19861
198.048	3654.67667
198.271	2335.39815
198.493	1746.98399
198.715	2649.38234
198.938	-3510.91382
199.16	2260.45299
199.382	3302.28868
199.604	4291.70649
199.827	-1234.68789
200.049	-2187.75303
200.271	3746.8514
200.493	-3129.99267
200.715	8347.82709
200.938	3248.38468
201.16	-6844.58768
201.382	-158574.32539
201.604	-8072.63192
201.826	2237.61906
202.048	21490.02262
202.27	20065.59316
202.492	4663.72495
202.715	-5900.16051
202.937	-6032.41368
203.159	-42107.87778
203.381	2221.16776
203.603	4365.00305
203.825	-1715.97769
204.047	4319.54548
204.269	11349.2353
204.491	1670.95164
204.713	9255.83404
204.935	6328.34845
205.156	-9560.37502
205.378	1012.89579
205.6	2882.47396
205.822	5037.14678
206.044	1853.44156
206.266	4961.33253
206.488	2409.71811
206.71	15760.03186
206.932	-11594.57391
207.153	-4513.54408
207.375	5675.79104
207.597	9085.41805
207.819	2961.02791
208.041	26469.42113
208.262	-1728.29247
208.484	-4468.79899
208.706	1130.28881
208.927	4468.57247
209.149	2301.12473
209.371	4581.6797
209.593	415.06615
209.814	3732.04812
210.036	2308.06735
210.258	1439.27669
210.479	758.84941
210.701	1447.24374
210.922	-9816.14107
211.144	3549.57609
211.366	1789.09123
211.587	1511.56839
211.809	8771.96515
212.03	3495.22491
212.252	3410.88738
212.473	6037.04119
212.695	1465.45979
212.916	4010.81802
213.138	1267.93818
213.359	-4784.32103
213.581	1715.17367
213.802	1218.15446
214.024	-11547.02587
214.245	-4113.6152
214.466	1064.99711
214.688	2758.10997
214.909	3408.83093
215.131	-11843.92273
215.352	2046.88364
215.573	14293.07318
215.795	1976.68583
216.016	3532.05913
216.237	-1271.38493
216.459	2687.86327
216.68	-15611.7299
216.901	3339.94228
217.122	-8662.50167
217.344	-2030.35015
217.565	-59210.75859
217.786	-102192.61912
218.007	541.90606
218.228	767.82318
218.45	16586.15357
218.671	507.32014
218.892	1815.46637
219.113	1258.66346
219.334	-1221.09046
219.555	4348.69025
219.776	6247.30989
219.997	5103.54886
220.219	5558.91245
220.44	1236.72049
220.661	-10743.41427
220.882	5780.00236
221.103	-10880.43355
221.324	1413.40068
221.545	2918.11353
221.766	2416.34346
221.987	1679.27615
222.208	696.24475
222.429	1597.98286
222.65	271.30474
222.87	760.61056
223.091	2759.59868
223.312	2046.94146
223.533	1061.75111
223.754	7386.42104
223.975	6368.97356
224.196	1075.99091
224.417	-22234.90184
224.637	736.65545
224.858	180.04504
225.079	9921.08442
225.3	1841.06518
225.521	2810.27187
225.741	698.97118
225.962	692.70238
226.183	295.42615
226.404	1147.28627
226.624	1423.66783
226.845	619.58661
227.066	634.43586
227.286	343.81721
227.507	192.81864
227.728	175.51997
227.948	274.47369
228.169	94.43022
228.389	92.02261
228.61	57.10987
228.831	71.40489
229.051	6.95835
229.272	42.27537
229.492	59.45724
229.713	19.0623
229.933	46.2206
230.154	38.68178
230.374	67.7157
230.595	45.87211
230.815	29.69799
231.036	51.49286
231.256	-13.02921
231.477	87.51532
231.697	44.87535
231.917	51.98305
232.138	75.60218
232.358	159.33825
232.579	129.58049
232.799	20.66239
233.019	122.6025
233.24	144.44018
233.46	53.50632
233.68	81.2663
233.901	50.80709
234.121	35.08527
234.341	15.45518
234.561	-4.58021
234.782	28.38647
235.002	85.28065
235.222	-0.68032
235.442	74.01412
235.662	37.69011
235.883	79.58718
236.103	68.23878
236.323	46.73288
236.543	37.43402
236.763	52.59644
236.983	57.40922
237.203	55.87811
237.423	83.48317
237.643	115.71534
237.864	99.90433
238.084	28.01858
238.304	36.3619
238.524	65.57643
238.744	56.0402
238.964	85.06047
239.184	75.9058
239.404	78.84501
239.624	40.28465
239.843	69.71224
240.063	44.70493
240.283	28.13534
240.503	33.12681
240.723	30.03111
240.943	17.03988
241.163	24.21981
241.383	18.18331
241.603	9.04565
241.822	9.89485
242.042	8.21516
242.262	9.89959
242.482	11.08937
242.702	12.975
242.921	4.3943
243.141	8.60203
243.361	8.09108
243.581	12.20593
243.8	10.10008
244.02	7.19398
244.24	13.02268
244.459	12.42281
244.679	23.90993
244.899	16.6234
245.118	19.30678
245.338	15.09415
245.558	17.34578
245.777	10.04512
245.997	12.41339
246.216	12.89097
246.436	7.27975
246.655	5.24321
246.875	4.07909
247.094	7.60616
247.314	2.90569
247.533	4.53352
247.753	5.41194
247.972	4.24745
248.192	1.56551
248.411	2.51361
248.631	4.72728
248.85	6.14042
249.07	5.36672
249.289	8.26418
249.508	6.2602
249.728	9.41569
249.947	10.10045
250.166	11.44954
250.386	6.61954
250.605	9.05853
250.824	13.85018
251.044	10.26443
251.263	29.20378
251.482	17.23567
251.701	14.73452
251.921	-0.05174
252.14	4.86797
252.359	5.21932
252.578	12.86292
252.798	4.21156
253.017	11.15273
253.236	5.51161
253.455	7.62593
253.674	15.05924
253.893	6.86623
254.112	11.3348
254.331	15.20629
254.551	14.18617
254.77	6.03867
254.989	18.2689
255.208	15.36765
255.427	19.41024
255.646	16.87078
255.865	26.35876
256.084	10.10142
256.303	14.1647
256.522	17.23012
256.741	5.11423
256.96	4.64518
257.179	9.67994
257.397	14.37276
257.616	7.64589
257.835	8.24053
258.054	18.60031
258.273	12.77379
258.492	13.20786
258.711	7.95731
258.93	3.58968
259.148	5.16856
259.367	5.42898
259.586	6.66982
259.805	2.89635
260.023	5.969
260.242	4.58907
260.461	3.381
260.68	1.84071
260.898	5.48577
261.117	1.92538
261.336	1.2815
261.554	4.59509
261.773	5.00499
261.992	0.99365
262.21	4.6008
262.429	5.28216
262.648	9.11395
262.866	10.68213
263.085	6.87043
263.303	6.65979
263.522	11.08847
263.74	11.24144
263.959	19.39462
264.178	10.08632
264.396	9.24512
264.615	6.37516
264.833	14.19172
265.051	12.37769
265.27	12.98545
265.488	14.13833
265.707	9.16752
265.925	13.60748
266.144	6.6668
266.362	7.33043
266.58	7.03595
266.799	6.37873
267.017	7.32289
267.235	6.25288
267.454	4.46907
267.672	2.44916
267.89	5.50996
268.109	5.86405
268.327	5.87942
268.545	1.54499
268.763	5.31053
268.982	2.39789
269.2	6.49757
269.418	4.01009
269.636	2.93513
269.854	6.15592
270.073	4.34015
270.291	1.97152
270.509	2.52653
270.727	5.698
270.945	9.11949
271.163	8.68527
271.381	2.08578
271.599	3.84948
271.817	6.80683
272.036	2.19297
272.254	3.8034
272.472	3.53633
272.69	3.19372
272.908	3.28126
273.126	5.3362
273.344	6.76884
273.562	2.45808
273.779	3.52971
273.997	5.1715
274.215	5.64541
274.433	3.99993
274.651	5.98837
274.869	5.89212
275.087	3.70098
275.305	5.88399
275.523	3.10185
275.74	3.96434
275.958	6.96169
276.176	10.20646
276.394	3.3462
276.612	4.54108
276.829	4.40337
277.047	3.67573
277.265	3.71305
277.483	4.81685
277.7	5.6484
277.918	4.65983
278.136	8.03876
278.353	3.96001
278.571	2.21532
278.789	5.75351
279.006	1.62866
279.224	3.77489
279.442	6.22375
279.659	4.63441
279.877	3.10961
280.094	6.63416
280.312	1.27422
280.529	4.36812
280.747	1.08801
280.964	3.45916
281.182	7.12199
281.399	3.78147
281.617	4.58779
281.834	3.40327
282.052	3.22192
282.269	4.27766
282.487	3.31519
282.704	2.89827
282.921	2.69983
283.139	4.20754
283.356	5.24015
283.574	4.68957
283.791	2.34258
284.008	6.75128
284.226	3.85081
284.443	4.18422
284.66	5.3814
284.877	4.47142
285.095	2.86385
285.312	2.19548
285.529	1.3521
285.746	1.21765
285.964	2.61782
286.181	1.87918
286.398	2.55515
286.615	3.33312
286.832	3.24687
287.05	0.9454
287.267	2.51763
287.484	2.35755
287.701	3.51519
287.918	3.2788
288.135	3.54813
288.352	1.71808
288.569	2.14595
288.786	3.1516
289.003	2.52055
289.22	3.67536
289.437	2.24146
289.654	3.77309
289.871	3.86158
290.088	3.5617
290.305	2.70357
290.522	2.28725
290.739	2.45213
290.956	3.91081
291.173	4.7157
291.39	4.40114
291.607	3.2079
291.824	2.63836
292.04	1.91794
292.257	3.64465
292.474	4.16076
292.691	2.64518
292.908	1.22375
293.125	2.46792
293.341	1.20415
293.558	6.36474
293.775	2.73052
293.992	2.64528
294.208	1.06707
294.425	1.67454
294.642	2.48876
294.858	3.65588
295.075	0.8162
295.292	2.51684
295.508	3.07102
295.725	4.56227
295.942	2.33244
296.158	1.65881
296.375	2.60969
296.591	2.01651
296.808	2.04309
297.024	2.24044
297.241	2.65245
297.458	2.97689
297.674	0.2035
297.891	2.38772
298.107	1.69836
298.323	1.37485
298.54	3.46113
298.756	1.72946
298.973	0.90587
299.189	3.73766
299.406	1.45326
299.622	3.70914
299.838	3.67321
300.055	3.20789
300.271	0.93378
300.487	1.23159
300.704	1.28887
300.92	0.80801
301.136	4.60894
301.353	3.57605
301.569	2.42947
301.785	2.88267
302.001	3.32204
302.218	3.00164
302.434	3.05631
302.65	0.81794
302.866	2.06413
303.083	4.68932
303.299	4.54612
303.515	2.43076
303.731	2.70244
303.947	0.84984
304.163	1.64329
304.379	2.58441
304.595	3.11311
304.812	1.72963
305.028	1.45625
305.244	2.2349
305.46	3.50253
305.676	3.30677
305.892	4.08248
306.108	2.82827
306.324	2.17928
306.54	4.8214
306.756	2.91607
306.972	2.991
307.187	2.27133
307.403	4.47456
307.619	1.96767
307.835	3.81499
308.051	4.16096
308.267	1.22147
308.483	3.43877
308.699	2.88945
308.914	2.39438
309.13	2.32827
309.346	0.58634
309.562	1.3415
309.778	0.78815
309.993	3.00602
310.209	2.20486
310.425	1.11771
310.641	2.10485
310.856	1.16588
311.072	1.23888
311.288	2.36705
311.503	2.43607
311.719	0.59939
311.935	0.37138
312.15	2.48857
312.366	2.37892
312.581	2.95297
312.797	2.43002
313.013	3.04679
313.228	1.84299
313.444	2.5521
313.659	1.63826
313.875	2.61292
314.09	2.13925
314.306	4.07509
314.521	3.2478
314.737	3.04548
314.952	2.54932
315.168	2.194
315.383	3.12226
315.599	2.31006
315.814	2.16817
316.029	3.49971
316.245	1.08971
316.46	0.69265
316.675	3.79798
316.891	4.80053
317.106	5.75948
317.321	2.97368
317.537	2.90372
317.752	3.22743
317.967	3.36659
318.183	1.57105
318.398	2.1059
318.613	3.46309
318.828	3.94724
319.043	3.41706
319.259	1.95448
319.474	2.91203
319.689	3.84077
319.904	0.8098
320.119	3.37058
320.334	2.7701
320.549	2.26171
320.765	3.80809
320.98	2.76462
321.195	3.34074
321.41	2.22259
321.625	3.38184
321.84	4.68739
322.055	4.50982
322.27	1.86568
322.485	1.41019
322.7	3.09171
322.915	3.76357
323.13	1.47207
323.345	3.84073
323.56	3.00801
323.775	3.24082
323.989	3.23966
324.204	2.6828
324.419	3.39166
324.634	0.96348
324.849	2.27803
325.064	4.84483
325.279	3.3879
325.493	3.14206
325.708	3.80067
325.923	1.65819
326.138	1.64082
326.352	4.33794
326.567	3.68129
326.782	2.19599
326.997	1.53461
327.211	3.39788
327.426	3.06885
327.641	2.18805
327.855	0.73685
328.07	3.0364
328.285	4.53883
328.499	2.12902
328.714	3.07687
328.928	3.60964
329.143	2.62916
329.358	3.66063
329.572	3.71037
329.787	3.94211
330.001	5.17352
330.216	0.91666
330.43	4.38566
330.645	4.44523
330.859	3.46527
331.074	1.85808
331.288	2.63508
331.503	3.99846
331.717	1.37893
331.931	2.42696
332.146	2.8825
332.36	4.69076
332.575	3.01658
332.789	2.99349
333.003	2.24618
333.218	3.18054
333.432	1.74501
333.646	3.32678
333.86	3.9992
334.075	4.38556
334.289	2.01261
334.503	1.58554
334.717	3.10025
334.932	3.26762
335.146	4.31025
335.36	2.39078
335.574	3.48381
335.788	3.44248
336.003	3.96704
336.217	3.36489
336.431	3.18843
336.645	1.99941
336.859	1.28685
337.073	2.28905
337.287	2.79722
337.501	1.70431
337.715	2.44489
337.929	3.18153
338.143	1.24744
338.357	2.32506
338.571	1.3992
338.785	2.86699
338.999	2.02108
339.213	2.00779
339.427	1.06096
339.641	3.77279
339.855	2.33766
340.069	2.14585
340.283	3.75195
340.497	4.30623
340.711	3.03339
340.924	2.10166
341.138	1.42023
341.352	0.97745
341.566	2.62294
341.78	0.56781
341.993	1.89656
342.207	1.44106
342.421	2.72133
342.635	2.70738
342.848	1.79373
343.062	0.59819
343.276	1.84337
343.49	4.5958
343.703	1.66995
343.917	3.3966
344.131	3.37891
344.344	1.74187
344.558	2.00025
344.771	1.51502
344.985	3.69333
345.199	4.08486
345.412	2.75343
345.626	2.56977
345.839	0.7916
346.053	1.2894
346.266	1.28657
346.48	3.1417
346.693	2.73341
346.907	3.03966
347.12	1.56928
347.334	2.80364
347.547	2.77095
347.76	2.0957
347.974	3.83165
348.187	2.64433
348.401	2.12862
348.614	1.81724
348.827	2.01741
349.041	3.22174
349.254	0.65715
349.467	2.30993
349.681	1.06342
349.894	1.86794
350.107	3.52098
350.32	3.9242
350.534	0.78797
350.747	1.88092
350.96	1.53132
351.173	1.66986
351.386	1.88822
351.6	1.81154
351.813	1.56792
352.026	2.254
352.239	1.0447
352.452	1.76774
352.665	3.06228
352.878	2.18113
353.092	4.38588
353.305	2.85376
353.518	2.33074
353.731	1.31339
353.944	3.35071
354.157	1.6942
354.37	1.31257
354.583	1.24525
354.796	0.61603
355.009	3.43277
355.222	2.14527
355.435	2.38055
355.647	3.41205
355.86	1.11926
356.073	2.11053
356.286	1.66725
356.499	2.80114
356.712	2.35987
356.925	2.51385
357.138	3.05671
357.35	1.27761
357.563	1.76244
357.776	2.08711
357.989	1.77751
358.201	2.55051
358.414	2.18088
358.627	3.08256
358.84	1.70205
359.052	1.14978
359.265	1.05039
359.478	2.96274
359.69	-0.37609
359.903	2.75814
360.116	2.6621
360.328	0.56275
360.541	2.7566
360.753	0.99725
360.966	1.35183
361.179	1.47513
361.391	1.44363
361.604	0.95604
361.816	1.45338
362.029	1.20713
362.241	1.055
362.454	1.22088
362.666	1.07904
362.879	1.77538
363.091	1.64168
363.304	1.08464
363.516	1.81656
363.728	0.79831
363.941	2.39378
364.153	1.28623
364.366	-0.05417
364.578	0.86665
364.79	2.28128
365.003	1.67977
365.215	1.48561
365.427	2.08118
365.639	2.96105
365.852	2.09954
366.064	3.60282
366.276	1.3951
366.488	2.35292
366.701	1.43796
366.913	1.68825
367.125	1.38313
367.337	1.31863
367.549	1.32565
367.762	1.97391
367.974	1.91052
368.186	1.0394
368.398	2.90675
368.61	2.38917
368.822	2.51947
369.034	1.96747
369.246	2.4546
369.458	3.7115
369.67	1.06988
369.882	3.55714
370.094	0.06722
370.306	3.39531
370.518	1.59085
370.73	1.07581
370.942	1.06363
371.154	1.4914
371.366	1.30074
371.578	1.98383
371.79	0.8865
372.002	2.78721
372.214	3.18727
372.425	2.16788
372.637	2.90259
372.849	2.15776
373.061	0.01692
373.273	2.02419
373.484	2.30972
373.696	2.53107
373.908	0.04778
374.12	2.7013
374.331	2.1917
374.543	0.99674
374.755	0.99466
374.967	1.851
375.178	2.51027
375.39	1.72086
375.602	1.81586
375.813	0.75493
376.025	0.60185
376.236	1.69774
376.448	1.81616
376.66	1.21937
376.871	1.32275
377.083	2.54997
377.294	2.49596
377.506	1.24374
377.717	2.74239
377.929	1.85877
378.14	0.8853
378.352	2.15862
378.563	2.04278
378.775	2.70597
378.986	1.08901
379.197	1.92978
379.409	1.32775
379.62	2.41614
379.832	1.97702
380.043	1.44312
380.254	1.80087
380.466	0.78955
380.677	4.03338
380.888	3.7749
381.1	3.7419
381.311	3.54171
381.522	1.60914
381.733	4.28465
381.945	1.32094
382.156	2.03038
382.367	1.37847
382.578	4.33456
382.789	4.01765
383.001	1.37539
383.212	2.67557
383.423	2.76293
383.634	2.81124
383.845	1.9884
384.056	1.3406
384.267	1.57511
384.478	1.52455
384.69	0.86906
384.901	2.0695
385.112	1.97604
385.323	2.84498
385.534	2.07796
385.745	1.90753
385.956	2.06096
386.167	0.93283
386.378	2.071
386.588	0.59822
386.799	1.06387
387.01	0.24826
387.221	2.48152
387.432	1.54453
387.643	3.3278
387.854	1.58008
388.065	1.43096
388.275	1.41552
388.486	1.27653
388.697	1.55523
388.908	1.42089
389.119	2.60312
389.329	3.03521
389.54	1.74632
389.751	1.92559
389.962	2.65665
390.172	1.95065
390.383	1.06359
390.594	1.01663
390.804	0.87373
391.015	1.062
391.226	1.57647
391.436	1.90205
391.647	1.84423
391.858	2.19718
392.068	0.21794
392.279	0.50518
392.489	1.53948
392.7	2.49444
392.91	0.69328
393.121	1.03987
393.331	1.99087
393.542	2.58214
393.752	1.85935
393.963	1.54622
394.173	1.47283
394.384	2.07186
394.594	1.52066
394.804	0.52418
395.015	1.68749
395.225	2.01584
395.436	0.57524
395.646	2.05416
395.856	0.71593
396.067	0.48764
396.277	2.43216
396.487	1.87762
396.697	1.52515
396.908	2.23751
397.118	2.32503
397.328	1.67095
397.538	2.35659
397.749	0.91253
397.959	2.1618
398.169	2.10659
398.379	0.49836
398.589	2.31275
398.8	1.54937
399.01	1.12691
399.22	1.42576
399.43	3.44555
399.64	1.11242
399.85	2.12846
400.06	1.37744
400.27	1.02153
400.48	1.60498
400.69	2.94642
400.9	1.2766
401.11	1.22794
401.32	2.43925
401.53	1.00148
401.74	3.04178
401.95	2.3733
402.16	0.6173
402.37	1.89954
402.58	1.13555
402.79	2.04493
403	2.58916
403.209	1.03712
403.419	2.14112
403.629	1.1592
403.839	1.98634
404.049	2.09104
404.258	0.81935
404.468	0.90135
404.678	1.93496
404.888	1.79242
405.097	0.62537
405.307	1.36315
405.517	1.93887
405.727	1.45333
405.936	1.29329
406.146	1.73142
406.356	2.53841
406.565	1.38089
406.775	0.95989
406.984	0.98279
407.194	2.97298
407.404	1.45398
407.613	1.85778
407.823	2.09361
408.032	2.37617
408.242	2.48192
408.451	1.20333
408.661	1.29187
408.87	2.89479
409.08	1.24523
409.289	1.91119
409.499	1.54777
409.708	1.81638
409.918	-0.06798
410.127	1.50494
410.336	2.67208
410.546	1.95546
410.755	1.23015
410.964	1.23518
411.174	0.88651
411.383	1.98206
411.592	2.02192
411.802	0.8522
412.011	2.46438
412.22	1.51953
412.429	2.64597
412.639	2.55916
412.848	2.62631
413.057	2.7823
413.266	2.48514
413.475	1.4431
413.685	2.48341
413.894	2.29866
414.103	2.53698
414.312	2.19795
414.521	1.6569
414.73	1.68867
414.939	3.11291
415.148	2.08222
415.357	1.9045
415.566	1.21371
415.776	1.25089
415.985	1.04112
416.194	2.16549
416.403	2.72421
416.611	0.44564
416.82	0.87549
417.029	1.29403
417.238	0.92706
417.447	0.43038
417.656	0.7915
417.865	0.63632
418.074	0.77758
418.283	0.9618
418.492	1.47552
418.7	1.46904
418.909	1.87328
419.118	1.266
419.327	1.36131
419.536	1.03088
419.744	0.51157
419.953	1.60042
420.162	1.67507
420.371	0.51773
420.579	0.21853
420.788	1.44422
420.997	1.27059
421.205	1.39761
421.414	0.99565
421.623	0.7359
421.831	0.5251
422.04	1.41114
422.249	0.41509
422.457	1.13416
422.666	0.55877
422.874	1.67561
423.083	1.67708
423.291	1.44623
423.5	0.96492
423.708	1.24239
423.917	1.51609
424.125	1.07636
424.334	0.72392
424.542	2.69504
424.751	1.8422
424.959	1.64101
425.167	1.89515
425.376	1.84353
425.584	1.16377
425.793	1.53745
426.001	0.64577
426.209	1.688
426.418	0.74729
426.626	0.94861
426.834	0.63771
427.042	1.15246
427.251	0.91683
427.459	1.82911
427.667	1.54313
427.875	0.67202
428.084	0.98249
428.292	2.12127
428.5	1.64077
428.708	0.90508
428.916	0.80284
429.124	1.46509
429.333	1.0957
429.541	1.1178
429.749	1.45917
429.957	1.29699
430.165	2.86179
430.373	0.65455
430.581	1.58622
430.789	2.27094
430.997	0.94586
431.205	1.05019
431.413	1.32671
431.621	1.02628
431.829	1.81959
432.037	0.97783
432.245	1.47692
432.453	1.39193
432.661	0.97387
432.869	2.52782
433.076	0.5671
433.284	1.09377
433.492	1.43973
433.7	1.95665
433.908	0.7477
434.116	1.28729
434.323	1.31023
434.531	1.24078
434.739	1.50519
434.947	1.87156
435.154	1.64556
435.362	1.44286
435.57	1.24065
435.778	1.08408
435.985	1.66555
436.193	1.05583
436.401	2.08619
436.608	1.40193
436.816	1.06998
437.023	2.70325
437.231	2.27207
437.439	1.45212
437.646	1.71206
437.854	1.5917
438.061	1.74479
438.269	1.20249
438.476	1.63811
438.684	1.30885
438.891	1.03654
439.099	0.52854
439.306	0.19514
439.514	0.56993
439.721	1.2332
439.929	0.90572
440.136	1.53804
440.343	1.43902
440.551	1.02054
440.758	2.58225
440.965	1.6364
441.173	1.25595
441.38	0.7915
441.587	1.36834
441.795	0.82879
442.002	1.48535
442.209	1.53724
442.416	1.84323
442.624	1.6311
442.831	1.66213
443.038	0.98492
443.245	0.69039
443.452	1.03669
443.66	1.82855
443.867	0.6976
444.074	1.03734
444.281	0.78652
444.488	1.07203
444.695	1.06779
444.902	0.87991
445.109	1.51111
445.316	0.95012
445.523	0.75305
445.73	0.62444
445.937	1.2447
446.144	1.54031
446.351	1.32126
446.558	0.62329
446.765	1.68583
446.972	1.92943
447.179	0.95397
447.386	2.22465
447.593	0.8742
447.8	2.15142
448.007	0.97673
448.214	1.3041
448.42	0.92683
448.627	1.9005
448.834	1.14175
449.041	1.18225
449.248	1.18376
449.454	2.07739
449.661	2.70424
449.868	1.3701
450.075	1.08531
450.281	0.15425
450.488	0.76694
450.695	1.07222
450.901	1.00863
451.108	1.23076
451.315	2.106
451.521	1.4588
451.728	2.05791
451.935	1.05159
452.141	1.32813
452.348	1.51543
452.554	1.26308
452.761	1.09343
452.967	2.44014
453.174	1.48812
453.38	1.63325
453.587	0.67838
453.793	1.4985
454	2.19495
454.206	2.79926
454.413	2.4607
454.619	1.68617
454.825	1.04986
455.032	1.95394
455.238	2.25194
455.445	0.82434
455.651	1.67014
455.857	0.33399
456.064	1.25702
456.27	1.39605
456.476	1.56105
456.682	0.71567
456.889	1.87471
457.095	2.01331
457.301	3.21873
457.507	1.64201
457.714	1.51688
457.92	1.46873
458.126	0.83939
458.332	1.17418
458.538	0.82707
458.744	0.93509
458.951	0.99138
459.157	2.23666
459.363	1.3618
459.569	1.13291
459.775	1.9237
459.981	0.69176
460.187	1.1404
460.393	1.58104
460.599	2.2943
460.805	1.36844
461.011	1.44205
461.217	2.01627
461.423	2.23024
461.629	1.26304
461.835	2.09594
462.041	1.44616
462.247	2.70311
462.453	1.50604
462.658	1.69074
462.864	2.16425
463.07	1.97563
463.276	2.01181
463.482	2.04528
463.688	2.56015
463.893	1.46033
464.099	1.47321
464.305	2.82815
464.511	1.40877
464.716	1.68081
464.922	2.08267
465.128	1.24186
465.333	3.0805
465.539	2.09879
465.745	1.3697
465.95	2.1213
466.156	3.52598
466.362	2.60294
466.567	1.60176
466.773	1.63626
466.978	3.07715
467.184	1.14814
467.389	0.23275
467.595	2.1917
467.8	1.14832
468.006	2.72313
468.211	2.58552
468.417	1.18954
468.622	2.24685
468.828	2.56952
469.033	1.96956
469.239	3.87532
469.444	1.52387
469.649	2.56243
469.855	1.70421
470.06	1.85077
470.266	1.20565
470.471	2.41715
470.676	2.33077
470.881	0.85757
471.087	2.50614
471.292	3.23703
471.497	1.08084
471.703	1.57292
471.908	1.53837
472.113	2.09132
472.318	2.43825
472.523	1.22373
472.729	2.19166
472.934	2.33842
473.139	1.62755
473.344	2.3507
473.549	2.76803
473.754	1.4848
473.959	3.28883
474.164	1.45608
474.369	1.98549
474.575	2.65289
474.78	2.04945
474.985	1.43186
475.19	0.92737
475.395	1.24713
475.6	1.77981
475.804	2.72276
476.009	1.67282
476.214	1.99001
476.419	1.6845
476.624	0.62616
476.829	1.30794
477.034	2.13787
477.239	1.22647
477.444	2.28374
477.648	1.94238
477.853	2.16682
478.058	1.52788
478.263	1.30071
478.468	0.95316
478.672	1.01915
478.877	2.43485
479.082	2.81329
479.287	1.90979
479.491	1.84677
479.696	0.77108
479.901	2.3704
480.105	2.21292
480.31	1.36339
480.515	1.46755
480.719	3.03345
480.924	1.13458
481.128	0.78422
481.333	1.47677
481.538	1.60546
481.742	1.17888
481.947	1.61883
482.151	1.74663
482.356	1.3797
482.56	1.8479
482.765	1.64476
482.969	2.04287
483.174	2.41968
483.378	2.99511
483.582	2.41151
483.787	3.01983
483.991	2.85079
484.196	2.92938
484.4	2.77356
484.604	3.45038
484.809	2.43479
485.013	2.80429
485.217	2.2678
485.422	2.14157
485.626	1.98894
485.83	1.86691
486.034	1.82148
486.239	1.85062
486.443	1.83816
486.647	1.60324
486.851	2.35502
487.055	2.52216
487.26	1.69182
487.464	2.12989
487.668	1.54709
487.872	1.28285
488.076	2.3213
488.28	1.76653
488.484	1.68323
488.688	1.73259
488.892	2.22291
489.096	2.21597
489.3	1.7962
489.504	1.78796
489.708	2.14111
489.912	2.19286
490.116	2.11625
490.32	1.18936
490.524	2.02811
490.728	2.10565
490.932	1.72948
491.136	1.36067
491.34	2.50663
491.544	2.50016
491.748	1.9618
491.951	2.10768
492.155	1.81396
492.359	2.26691
492.563	1.51308
492.767	1.36714
492.97	1.65966
493.174	1.34542
493.378	1.4875
493.582	1.16524
493.785	1.54233
493.989	1.83573
494.193	1.9211
494.396	1.56784
494.6	2.32055
494.804	1.88607
495.007	1.49705
495.211	1.33872
495.414	1.80688
495.618	1.81766
495.822	2.50382
496.025	1.65651
496.229	2.2684
496.432	1.16766
496.636	1.67998
496.839	1.54979
497.043	2.7187
497.246	1.8264
497.45	1.46232
497.653	1.45583
497.856	1.94223
498.06	0.87409
498.263	1.49454
498.467	1.20176
498.67	2.32627
498.873	2.02638
499.077	1.50431
499.28	1.40567
499.483	2.09873
499.686	2.2252
499.89	2.18478
500.093	2.32499
500.296	1.5073
500.499	2.75669
500.703	1.92992
500.906	1.94677
501.109	3.22759
501.312	2.13764
501.515	1.80256
501.719	2.20344
501.922	3.09079
502.125	2.15172
502.328	2.02193
502.531	1.31613
502.734	2.07976
502.937	0.81162
503.14	1.99919
503.343	1.16287
503.546	1.6656
503.749	1.47864
503.952	2.24415
504.155	1.2993
504.358	2.34417
504.561	1.81537
504.764	1.2805
504.967	1.80709
505.17	1.95681
505.373	3.03682
505.576	2.19752
505.778	2.53983
505.981	1.70518
506.184	2.77589
506.387	0.99518
506.59	3.19884
506.793	2.69468
506.995	2.22555
507.198	0.91764
507.401	2.00819
507.604	2.33439
507.806	1.18521
508.009	1.3385
508.212	2.08097
508.414	1.53345
508.617	1.16899
508.82	1.74963
509.022	2.35391
509.225	2.00528
509.427	0.78323
509.63	2.62887
509.833	1.76313
510.035	1.61064
510.238	0.8739
510.44	2.57835
510.643	0.45929
510.845	3.33987
511.048	2.07792
511.25	1.69383
511.453	1.73338
511.655	2.13297
511.858	1.60217
512.06	2.30772
512.262	1.86034
512.465	2.24635
512.667	1.30432
512.869	1.27698
513.072	2.06368
513.274	2.50523
513.476	2.31368
513.679	2.50616
513.881	1.34967
514.083	3.07456
514.286	1.51655
514.488	1.65052
514.69	1.50186
514.892	1.22449
515.094	2.26002
515.297	1.76602
515.499	2.16234
515.701	1.44371
515.903	3.17859
516.105	2.92479
516.307	2.44284
516.509	0.7509
516.711	1.21546
516.913	1.84948
517.116	1.6457
517.318	1.47985
517.52	2.37467
517.722	1.97397
517.924	0.95918
518.126	1.83881
518.328	1.24037
518.529	1.96473
518.731	2.62787
518.933	1.20355
519.135	1.62227
519.337	2.32435
519.539	1.91001
519.741	0.77847
519.943	1.71502
520.145	1.73966
520.346	2.14993
520.548	1.60745
520.75	2.06236
520.952	1.61767
521.153	1.99567
521.355	2.31873
521.557	1.3018
521.759	2.27763
521.96	2.06917
522.162	1.35111
522.364	2.8302
522.565	1.36753
522.767	2.58504
522.969	2.86952
523.17	2.19676
523.372	2.45781
523.573	1.30851
523.775	1.67624
523.977	1.27696
524.178	2.916
524.38	1.35351
524.581	2.16492
524.783	1.4298
524.984	2.12932
525.186	1.71357
525.387	2.20953
525.589	1.73529
525.79	1.41701
525.991	1.11538
526.193	2.00542
526.394	0.83177
526.596	1.93773
526.797	1.75658
526.998	1.45849
527.2	0.92734
527.401	2.25194
527.602	1.99851
527.803	3.09453
528.005	2.45173
528.206	2.97169
528.407	2.99473
528.608	2.58359
528.81	2.62365
529.011	2.00329
529.212	3.20769
529.413	2.61156
529.614	2.41002
529.815	2.67295
530.017	2.57144
530.218	2.19969
530.419	1.72192
530.62	2.00169
530.821	1.99313
531.022	1.21665
531.223	2.28581
531.424	2.26064
531.625	2.10469
531.826	2.02721
532.027	1.99683
532.228	2.73013
532.429	2.08172
532.63	1.92932
532.831	2.15798
533.032	2.13349
533.233	2.50873
533.433	2.4977
533.634	2.55804
533.835	1.95604
534.036	1.68821
534.237	1.90386
534.438	1.66101
534.638	1.41223
534.839	1.47182
535.04	2.07145
535.241	1.50339
535.441	2.62882
535.642	1.95864
535.843	1.2127
536.043	1.30372
536.244	1.45446
536.445	1.48359
536.645	2.43164
536.846	1.70246
537.047	2.69253
537.247	1.31821
537.448	1.73708
537.648	1.89877
537.849	1.91886
538.049	1.8389
538.25	2.5259
538.451	2.1487
538.651	1.58647
538.851	2.27846
539.052	2.7392
539.252	2.43759
539.453	2.0955
539.653	1.8836
539.854	1.86254
540.054	1.74982
540.254	2.47684
540.455	2.6797
540.655	1.85417
540.855	2.28258
541.056	2.70176
541.256	2.14961
541.456	3.13507
541.657	2.07845
541.857	3.21032
542.057	1.72513
542.257	1.87747
542.458	2.6015
542.658	2.88046
542.858	1.50412
543.058	2.63827
543.258	2.28476
543.458	1.34093
543.659	1.14404
543.859	2.2963
544.059	2.14968
544.259	1.83464
544.459	2.44222
544.659	1.67187
544.859	2.3096
545.059	1.57956
545.259	2.41135
545.459	2.20856
545.659	2.60186
545.859	2.04045
546.059	2.08254
546.259	1.54694
546.459	0.97079
546.659	1.36666
546.859	2.34963
547.059	2.36344
547.258	2.35033
547.458	2.35648
547.658	1.40006
547.858	1.49892
548.058	2.50971
548.258	2.17807
548.457	1.68362
548.657	4.4187
548.857	2.10737
549.057	3.17722
549.256	2.75492
549.456	2.43747
549.656	1.37615
549.855	4.23722
550.055	2.51487
550.255	4.07469
550.454	3.07801
550.654	3.58829
550.853	3.7135
551.053	3.48573
551.253	2.96642
551.452	3.05331
551.652	1.89117
551.851	1.00781
552.051	2.14176
552.25	2.18051
552.45	1.99583
552.649	2.21715
552.849	1.71955
553.048	2.55827
553.248	2.81706
553.447	1.92906
553.646	3.49902
553.846	4.06377
554.045	3.6001
554.244	1.95172
554.444	4.30844
554.643	1.97185
554.842	4.10308
555.042	4.73334
555.241	2.50899
555.44	2.16277
555.64	3.00606
555.839	4.14488
556.038	3.25929
556.237	2.59047
556.436	2.70886
556.636	3.26216
556.835	2.26601
557.034	4.30031
557.233	2.7678
557.432	2.00476
557.631	3.97272
557.83	2.84533
558.029	2.60563
558.228	2.71585
558.427	1.88389
558.626	3.2459
558.825	2.39591
559.024	3.19267
559.223	4.67493
559.422	2.77648
559.621	3.55761
559.82	0.96924
560.019	3.15828
560.218	2.48551
560.417	0.44599
560.616	2.76142
560.815	5.72506
561.014	1.55518
561.212	3.7405
561.411	3.24752
561.61	1.52869
561.809	2.76692
562.008	4.29204
562.206	2.80441
562.405	3.23785
562.604	2.97873
562.803	3.15465
563.001	2.89359
563.2	1.77371
563.399	3.43183
563.597	1.83431
563.796	3.15586
563.995	1.60263
564.193	3.42
564.392	2.3107
564.59	4.8875
564.789	1.07199
564.988	2.52586
565.186	2.74787
565.385	2.39243
565.583	2.19658
565.782	2.54091
565.98	2.19914
566.179	2.44222
566.377	1.37565
566.575	1.79252
566.774	3.30808
566.972	3.40583
567.171	4.46884
567.369	4.09288
567.567	2.82579
567.766	3.12434
567.964	0.98731
568.162	3.3567
568.361	4.07736
568.559	2.79077
568.757	3.33014
568.956	3.19735
569.154	2.89237
569.352	3.7531
569.55	2.92303
569.748	2.82244
569.947	1.98102
570.145	2.28077
570.343	1.6151
570.541	3.81511
570.739	1.49844
570.937	2.76312
571.135	2.80985
571.333	3.99451
571.532	3.94657
571.73	2.86995
571.928	3.16576
572.126	2.97304
572.324	2.22601
572.522	3.78426
572.72	4.81667
572.918	2.58607
573.116	2.78551
573.313	2.64572
573.511	2.39757
573.709	2.52974
573.907	3.09847
574.105	2.42418
574.303	1.25619
574.501	1.47449
574.699	2.63358
574.896	2.83232
575.094	3.28845
575.292	1.62472
575.49	3.52664
575.688	2.65662
575.885	3.99786
576.083	4.59385
576.281	3.1255
576.478	2.39888
576.676	3.61597
576.874	1.8895
577.071	2.56578
577.269	5.32758
577.467	2.7476
577.664	3.17458
577.862	3.74773
578.059	2.42453
578.257	3.95475
578.455	3.05213
578.652	3.18792
578.85	1.43528
579.047	3.60485
579.245	3.3446
579.442	3.28576
579.64	3.52817
579.837	1.64125
580.034	5.75119
580.232	2.91409
580.429	2.6959
580.627	3.83974
580.824	4.54319
581.021	4.01665
581.219	3.23791
581.416	2.58375
581.613	4.6965
581.811	4.86899
582.008	2.476
582.205	4.30399
582.402	3.775
582.6	5.73288
582.797	3.7431
582.994	4.20839
583.191	4.17063
583.388	3.89603
583.586	4.38373
583.783	5.07249
583.98	2.29642
584.177	3.5368
584.374	0.53098
584.571	3.36708
584.768	3.58173
584.965	3.18435
585.162	4.67837
585.359	5.50609
585.556	3.56101
585.753	4.2071
585.95	2.18763
586.147	2.99005
586.344	4.33214
586.541	3.43566
586.738	2.61033
586.935	3.68042
587.132	2.79065
587.329	4.78812
587.526	3.42376
587.722	9.12018
587.919	2.00109
588.116	3.83052
588.313	5.3232
588.51	6.2427
588.706	3.30691
588.903	4.29837
589.1	4.67558
589.297	6.75097
589.493	3.37164
589.69	4.12322
589.887	2.89047
590.083	2.06254
590.28	2.63059
590.477	4.99661
590.673	4.38073
590.87	5.1848
591.067	3.0151
591.263	4.33875
591.46	4.50794
591.656	3.78706
591.853	5.68644
592.049	3.01632
592.246	3.01519
592.442	5.24746
592.639	5.0222
592.835	2.22415
593.032	4.06679
593.228	2.26342
593.425	1.79367
593.621	2.09818
593.817	3.67197
594.014	2.96514
594.21	3.69723
594.406	4.84401
594.603	3.67127
594.799	3.12093
594.995	0.89566
595.192	4.5248
595.388	2.86588
595.584	2.62555
595.78	1.68112
595.977	5.6532
596.173	4.95073
596.369	2.90878
596.565	2.1492
596.761	1.63783
596.957	4.23776
597.154	2.10055
597.35	2.5693
597.546	2.09962
597.742	3.45651
597.938	3.49762
598.134	2.25769
598.33	3.44229
598.526	5.44709
598.722	4.18258
598.918	5.78464
599.114	4.42482
599.31	2.61391
599.506	3.79319
599.702	3.00006
599.898	4.53038
600.094	5.36633
600.29	4.90303
600.485	5.0511
600.681	4.06222
600.877	6.09359
601.073	3.73692
601.269	6.2322
601.465	5.53471
601.66	2.74133
601.856	1.62271
602.052	5.68659
602.248	2.99436
602.443	0.89436
602.639	2.10034
602.835	2.21628
603.03	2.55204
603.226	4.36738
603.422	2.33364
603.617	3.05234
603.813	2.76625
604.009	2.34728
604.204	4.16483
604.4	1.2706
604.595	4.08395
604.791	2.01568
604.986	3.44928
605.182	1.87035
605.377	2.55503
605.573	2.54266
605.768	3.11637
605.964	3.98263
606.159	4.28695
606.355	5.30255
606.55	3.41487
606.746	4.86817
606.941	3.7897
607.136	6.18411
607.332	7.55883
607.527	2.35045
607.722	4.06688
607.918	3.86467
608.113	2.6014
608.308	4.25977
608.503	4.164
608.699	3.96221
608.894	3.84546
609.089	2.35932
609.284	3.55273
609.479	2.67639
609.675	3.95889
609.87	2.84028
610.065	3.7544
610.26	4.59969
610.455	4.53428
610.65	3.35137
610.845	4.07175
611.04	4.83237
611.235	3.53222
611.43	3.62714
611.625	2.45097
611.82	5.60796
612.015	3.02138
612.21	6.15767
612.405	2.32193
612.6	7.17495
612.795	6.20316
612.99	5.54637
613.185	2.95537
613.38	3.14262
613.575	4.66196
613.77	8.26258
613.965	2.34886
614.159	3.33967
614.354	6.28482
614.549	6.11744
614.744	5.28099
614.938	3.42632
615.133	2.69604
615.328	5.90594
615.523	6.43105
615.717	8.88259
615.912	4.10918
616.107	4.60902
616.301	4.0548
616.496	3.08742
616.691	7.32523
616.885	5.46653
617.08	8.09786
617.274	6.63318
617.469	8.13779
617.664	5.33922
617.858	3.73445
618.053	5.04951
618.247	4.34061
618.442	1.4358
618.636	6.4574
618.831	4.22755
619.025	3.85688
619.219	8.8802
619.414	-0.18619
619.608	4.71389
619.803	3.5494
619.997	8.02711
620.191	6.60161
620.386	5.24833
620.58	5.09516
620.774	2.14712
620.969	2.1343
621.163	4.94845
621.357	2.50438
621.551	4.25561
621.746	5.36241
621.94	4.87776
622.134	10.96763
622.328	8.20063
622.522	2.72926
622.716	6.41714
622.911	6.30459
623.105	6.2082
623.299	5.44909
623.493	10.6622
623.687	3.62253
623.881	4.38528
624.075	5.67032
624.269	6.20908
624.463	1.82198
624.657	2.46177
624.851	5.75042
625.045	6.18211
625.239	5.97094
625.433	3.45209
625.627	7.1
625.821	3.60553
626.015	3.11793
626.209	4.43275
626.403	2.19743
626.596	4.99365
626.79	5.31575
626.984	2.54631
627.178	4.88335
627.372	5.18431
627.565	5.5571
627.759	2.00252
627.953	2.41463
628.147	5.12179
628.34	5.70321
628.534	7.7009
628.728	4.05666
628.921	6.414
629.115	6.20623
629.309	5.92876
629.502	6.75029
629.696	5.5807
629.89	5.25448
630.083	5.01099
630.277	5.88697
630.47	8.55159
630.664	4.83506
630.857	2.83914
631.051	6.63839
631.244	7.13707
631.438	6.83252
631.631	4.05742
631.825	7.12024
632.018	6.30265
632.212	8.4629
632.405	7.13343
632.598	4.05139
632.792	5.86801
632.985	0.91646
633.178	4.15983
633.372	5.23208
633.565	5.07412
633.758	7.58876
633.952	3.64938
634.145	3.97359
634.338	5.18484
634.531	4.46743
634.724	3.89513
634.918	5.74842
635.111	4.55023
635.304	4.78617
635.497	9.38598
635.69	6.04309
635.883	7.56083
636.077	3.19462
636.27	6.49235
636.463	5.90648
636.656	6.47546
636.849	4.28714
637.042	5.8933
637.235	9.11308
637.428	7.35838
637.621	7.69022
637.814	8.80247
638.007	8.94738
638.2	8.9299
638.393	9.72835
638.586	3.35205
638.778	4.53737
638.971	6.4358
639.164	9.50259
639.357	7.21615
639.55	8.8621
639.743	8.12469
639.935	7.76002
640.128	10.57048
640.321	7.35729
640.514	6.48792
640.707	12.15781
640.899	7.81519
641.092	2.85223
641.285	21.21837
641.477	1.84615
641.67	10.67441
641.863	9.28282
642.055	7.13363
642.248	6.59597
642.441	5.7305
642.633	7.24734
642.826	9.14639
643.018	9.59413
643.211	10.44477
643.403	10.40863
643.596	11.07339
643.788	10.88053
643.981	6.20061
644.173	8.10011
644.366	6.51333
644.558	3.33867
644.751	8.57105
644.943	4.25153
645.135	11.04185
645.328	11.1806
645.52	8.64193
645.712	8.81484
645.905	14.61474
646.097	5.07317
646.289	8.0489
646.482	11.21879
646.674	5.55378
646.866	9.48949
647.058	7.81553
647.251	4.71864
647.443	5.47318
647.635	6.51973
647.827	4.76775
648.019	4.64974
648.211	7.39216
648.404	7.89406
648.596	10.82944
648.788	7.91307
648.98	7.95793
649.172	7.80956
649.364	8.21351
649.556	3.5615
649.748	12.30436
649.94	5.44318
650.132	8.66723
650.324	5.3332
650.516	5.47692
650.708	9.70316
650.9	4.22295
651.092	6.27534
651.284	3.57403
651.476	4.6223
651.667	8.57885
651.859	10.04979
652.051	6.92672
652.243	7.66334
652.435	5.83116
652.627	8.22109
652.818	8.05317
653.01	3.68288
653.202	5.50123
653.394	6.7794
653.585	8.98054
653.777	18.70234
653.969	10.8166
654.16	10.33857
654.352	5.59224
654.544	7.63214
654.735	11.02374
654.927	7.60837
655.118	11.72082
655.31	10.04413
655.502	10.20125
655.693	5.97877
655.885	8.99996
656.076	11.1717
656.268	7.87139
656.459	11.10479
656.651	11.26521
656.842	6.3862
657.034	5.51435
657.225	9.26588
657.416	11.56993
657.608	10.43728
657.799	6.98666
657.99	9.36594
658.182	4.75239
658.373	5.59886
658.564	8.56979
658.756	6.72243
658.947	6.54304
659.138	4.65052
659.33	5.36645
659.521	5.08703
659.712	6.22607
659.903	6.16047
660.094	5.4922
660.286	3.34926
660.477	11.99238
660.668	8.33484
660.859	7.60836
661.05	4.06744
661.241	8.93508
661.432	8.71617
661.623	6.64781
661.814	7.18449
662.006	3.69769
662.197	9.30935
662.388	10.36902
662.579	8.92018
662.77	16.13063
662.96	15.44738
663.151	10.90104
663.342	3.33617
663.533	9.3639
663.724	7.54157
663.915	12.95576
664.106	7.94134
664.297	13.43448
664.488	10.23372
664.678	7.62783
664.869	10.23425
665.06	11.07982
665.251	8.94552
665.442	9.90284
665.632	6.41561
665.823	15.13652
666.014	1.01397
666.204	10.55384
666.395	12.15073
666.586	16.74526
666.776	11.04494
666.967	14.14182
667.158	9.02025
667.348	13.45953
667.539	5.40446
667.729	11.59004
667.92	6.57072
668.111	11.40058
668.301	10.61572
668.492	7.59853
668.682	7.84566
668.873	8.29546
669.063	6.00762
669.253	8.63386
669.444	11.64021
669.634	8.26071
669.825	13.91156
670.015	11.99785
670.206	6.36871
670.396	16.0066
670.586	9.1725
670.777	10.86395
670.967	3.13032
671.157	9.21987
671.347	7.80168
671.538	13.73038
671.728	10.68448
671.918	14.85321
672.108	12.64011
672.299	9.59115
672.489	11.20063
672.679	8.34805
672.869	12.19994
673.059	14.65521
673.249	11.16004
673.44	8.16056
673.63	8.99176
673.82	11.68646
674.01	6.68476
674.2	11.65575
674.39	18.58753
674.58	11.14996
674.77	10.13274
674.96	9.93196
675.15	22.64806
675.34	12.23509
675.53	9.94805
675.72	8.36506
675.91	5.71521
676.099	15.73335
676.289	16.94911
676.479	13.42047
676.669	8.89001
676.859	11.84379
677.049	6.79376
677.238	9.81212
677.428	15.77541
677.618	10.56308
677.808	12.28536
677.997	11.85885
678.187	6.02197
678.377	9.02563
678.567	7.69672
678.756	8.8688
678.946	8.28223
679.136	4.83993
679.325	6.82203
679.515	6.8398
679.704	4.81904
679.894	10.48589
680.084	9.52445
680.273	12.78825
680.463	5.85388
680.652	6.22719
680.842	8.55426
681.031	11.60097
681.221	6.01896
681.41	10.13778
681.6	8.13695
681.789	11.28526
681.978	12.88937
682.168	10.11497
682.357	10.90744
682.547	12.29907
682.736	10.78143
682.925	13.99348
683.115	13.66087
683.304	12.6363
683.493	11.40371
683.682	12.37557
683.872	11.08318
684.061	14.85705
684.25	12.9006
684.439	17.24594
684.629	13.01605
684.818	21.92246
685.007	10.80841
685.196	9.34933
685.385	16.52441
685.574	13.52903
685.763	11.4068
685.952	11.35328
686.142	6.83399
686.331	16.13711
686.52	5.09807
686.709	16.1276
686.898	16.52435
687.087	13.56786
687.276	16.91918
687.465	14.7511
687.654	9.74324
687.842	16.8588
688.031	6.26771
688.22	15.76503
688.409	11.53323
688.598	12.04605
688.787	20.83733
688.976	12.30107
689.165	18.35698
689.353	10.06284
689.542	13.50734
689.731	14.00992
689.92	19.16401
690.108	15.88843
690.297	10.90341
690.486	12.73457
690.675	14.80903
690.863	19.00431
691.052	18.10955
691.241	14.96613
691.429	13.6932
691.618	17.72766
691.806	7.68861
691.995	12.89773
692.184	11.77509
692.372	10.76588
692.561	12.70442
692.749	12.20766
692.938	22.11668
693.126	15.9409
693.315	12.23056
693.503	14.96545
693.692	16.37021
693.88	17.29448
694.068	22.49569
694.257	13.42548
694.445	13.65658
694.634	5.21722
694.822	17.91814
695.01	18.91543
695.199	18.36026
695.387	19.72393
695.575	18.83296
695.763	13.50198
695.952	11.99427
696.14	6.89977
696.328	10.78461
696.516	13.72375
696.705	13.80647
696.893	13.10628
697.081	6.47705
697.269	14.74731
697.457	8.05013
697.645	6.86467
697.833	14.622
698.021	8.16627
698.21	8.75412
698.398	10.3333
698.586	6.3678
698.774	5.8637
698.962	9.31923
699.15	6.45251
699.338	5.37586
699.526	12.1528
699.714	8.68948
699.901	8.43116
700.089	14.95289
700.277	8.70392
700.465	10.76377
700.653	15.00698
700.841	13.89465
701.029	9.61874
701.217	17.23314
701.404	13.1028
701.592	18.75823
701.78	21.51298
701.968	10.93675
702.155	12.27474
702.343	7.84781
702.531	19.0161
702.718	15.50457
702.906	13.38014
703.094	11.69865
703.281	20.21817
703.469	12.60222
703.657	18.71785
703.844	30.66243
704.032	21.83538
704.219	12.58523
704.407	16.01679
704.595	21.25295
704.782	15.40504
704.97	12.75341
705.157	12.98964
705.345	22.27026
705.532	27.31003
705.719	15.83636
705.907	21.27332
706.094	15.94091
706.282	23.90351
706.469	13.76252
706.656	15.60747
706.844	14.98506
707.031	20.22238
707.218	16.20379
707.406	22.89597
707.593	19.2232
707.78	18.15139
707.968	15.09397
708.155	10.1853
708.342	19.00323
708.529	19.31712
708.716	16.05064
708.904	23.78135
709.091	19.29435
709.278	10.22906
709.465	23.17583
709.652	24.58507
709.839	22.52454
710.026	17.48765
710.213	8.50691
710.4	17.76358
710.587	20.17198
710.774	22.25776
710.961	21.54766
711.148	17.06959
711.335	22.40554
711.522	16.40428
711.709	17.57914
711.896	27.1934
712.083	22.18344
712.27	12.37348
712.457	17.06945
712.644	9.42142
712.831	27.32616
713.017	17.71082
713.204	20.71815
713.391	12.96898
713.578	23.16648
713.765	24.36478
713.951	20.20353
714.138	34.52665
714.325	20.90898
714.512	18.17835
714.698	13.82912
714.885	25.58776
715.072	20.01611
715.258	18.47192
715.445	14.93893
715.631	24.35952
715.818	4.85868
716.005	14.76819
716.191	20.70244
716.378	16.20891
716.564	22.68395
716.751	13.12551
716.937	15.90942
717.124	25.2625
717.31	15.00566
717.497	26.86319
717.683	14.81546
717.869	31.94349
718.056	16.02897
718.242	21.59613
718.429	19.53783
718.615	13.01082
718.801	20.49811
718.988	25.0092
719.174	22.89797
719.36	17.74164
719.547	28.10661
719.733	20.9977
719.919	21.64987
720.105	25.22446
720.291	18.97755
720.478	21.09183
720.664	18.35575
720.85	17.31321
721.036	39.1213
721.222	30.01599
721.408	19.06668
721.595	34.33495
721.781	31.55704
721.967	28.1208
722.153	29.98663
722.339	24.63833
722.525	24.88232
722.711	12.99267
722.897	12.89174
723.083	19.01289
723.269	28.00457
723.455	37.64106
723.641	40.72063
723.827	23.14884
724.012	25.1914
724.198	20.13564
724.384	29.56136
724.57	25.24646
724.756	13.86404
724.942	8.41492
725.127	27.71375
725.313	32.85115
725.499	30.91283
725.685	36.41044
725.87	25.15549
726.056	15.5832
726.242	30.13154
726.428	12.98918
726.613	26.99338
726.799	20.99335
726.985	15.41844
727.17	13.19046
727.356	33.37878
727.541	15.456
727.727	21.33692
727.913	27.05268
728.098	19.38991
728.284	27.83691
728.469	13.44458
728.655	16.33379
728.84	28.17925
729.026	26.71492
729.211	29.34296
729.397	24.11411
729.582	26.49234
729.767	21.23391
729.953	23.56771
730.138	28.60429
730.323	8.11488
730.509	13.85433
730.694	32.01844
730.879	25.38903
731.065	24.55416
731.25	37.11821
731.435	26.28035
731.621	13.04301
731.806	19.01945
731.991	25.29444
732.176	14.32299
732.361	30.73346
732.547	23.83139
732.732	11.77246
732.917	38.88417
733.102	14.96906
733.287	17.68369
733.472	22.34161
733.657	23.98776
733.842	13.43188
734.027	21.55336
734.212	21.80935
734.397	18.22181
734.582	24.11528
734.767	28.42428
734.952	34.91315
735.137	7.36241
735.322	35.15175
735.507	26.32722
735.692	25.9035
735.877	42.27331
736.062	36.97555
736.247	26.04136
736.431	24.97986
736.616	34.93509
736.801	27.55725
736.986	25.5494
737.171	17.68205
737.355	13.89194
737.54	33.2802
737.725	23.38433
737.909	47.10753
738.094	20.62427
738.279	30.49102
738.463	22.85831
738.648	29.40571
738.833	28.09045
739.017	39.51985
739.202	23.29215
739.386	24.29147
739.571	17.92534
739.756	30.9034
739.94	25.51974
740.125	32.82943
740.309	19.19802
740.494	31.54141
740.678	26.87569
740.863	29.70672
741.047	27.57057
741.231	35.67259
741.416	20.2864
741.6	38.10652
741.785	20.5491
741.969	30.76658
742.153	35.2356
742.338	9.71211
742.522	24.57212
742.706	32.00588
742.89	17.31325
743.075	26.71597
743.259	38.85712
743.443	32.36675
743.627	34.92074
743.812	45.81014
743.996	8.65274
744.18	25.54182
744.364	22.27174
744.548	50.55838
744.732	23.88632
744.916	31.93029
745.1	30.11499
745.285	23.84136
745.469	31.17039
745.653	42.66402
745.837	14.65964
746.021	49.44621
746.205	36.75851
746.389	29.23706
746.573	25.7684
746.757	40.20988
746.94	21.29678
747.124	37.19871
747.308	17.81476
747.492	40.00288
747.676	23.74697
747.86	46.5565
748.044	22.75886
748.227	12.95942
748.411	59.32825
748.595	30.62608
748.779	20.04017
748.963	30.15018
749.146	27.73985
749.33	21.44767
749.514	18.98148
749.697	40.36738
749.881	21.64048
750.065	17.88983
750.248	27.7495
750.432	49.53734
750.616	28.53096
750.799	16.53281
750.983	44.97423
751.166	55.45805
751.35	17.12434
751.533	33.80026
751.717	38.63158
751.9	44.98616
752.084	23.4019
752.267	19.94643
752.451	20.27444
752.634	28.04257
752.818	33.51584
753.001	35.64874
753.184	36.88291
753.368	31.16094
753.551	1.10345
753.734	20.80643
753.918	48.66769
754.101	21.07838
754.284	36.83369
754.467	26.20826
754.651	22.87241
754.834	21.79715
755.017	38.84829
755.2	37.13993
755.384	18.5537
755.567	36.8959
755.75	39.78861
755.933	25.33009
756.116	31.88425
756.299	24.76394
756.482	21.07037
756.665	32.61951
756.848	29.62912
757.032	31.67126
757.215	16.30923
757.398	21.62732
757.581	23.11176
757.764	57.02185
757.947	29.97292
758.129	41.15385
758.312	4.40832
758.495	28.78298
758.678	26.71819
758.861	26.24161
759.044	48.8899
759.227	23.09934
759.41	20.26221
759.592	34.36819
759.775	28.66929
759.958	38.78172
760.141	16.83035
760.324	50.23405
760.506	42.31045
760.689	38.83152
760.872	55.06553
761.054	33.01206
761.237	26.4694
761.42	34.40035
761.602	38.91625
761.785	32.637
761.968	38.74227
762.15	47.70944
762.333	28.10677
762.515	32.75366
762.698	23.20155
762.88	33.95133
763.063	30.71164
763.245	34.33901
763.428	19.28035
763.61	21.77517
763.793	16.50871
763.975	28.26294
764.158	22.84378
764.34	21.69416
764.522	16.82965
764.705	22.34304
764.887	39.26136
765.069	12.65428
765.252	34.57089
765.434	36.65785
765.616	28.53974
765.799	22.01442
765.981	37.42767
766.163	18.18878
766.345	38.41414
766.528	21.52895
766.71	8.49845
766.892	31.97289
767.074	41.60807
767.256	25.42509
767.438	48.80775
767.62	34.43642
767.802	53.29199
767.985	39.04987
768.167	52.78927
768.349	22.99321
768.531	38.09937
768.713	34.40293
768.895	43.57671
769.077	36.38334
769.259	57.66501
769.441	90.2799
769.623	45.98007
769.804	53.56281
769.986	55.29017
770.168	65.46488
770.35	80.278
770.532	59.17825
770.714	60.67115
770.896	61.70221
771.077	24.11314
771.259	63.12261
771.441	53.39765
771.623	69.75001
771.804	92.41671
771.986	20.36207
772.168	41.95374
772.35	65.048
772.531	91.16837
772.713	53.55693
772.894	71.02855
773.076	46.2676
773.258	41.88308
773.439	67.39666
773.621	78.39517
773.802	30.82431
773.984	45.95838
774.166	58.0886
774.347	77.00823
774.529	67.24603
774.71	15.03874
774.891	43.75022
775.073	46.49322
775.254	79.52048
775.436	39.50531
775.617	81.12558
775.799	45.48234
775.98	79.96163
776.161	82.40136
776.343	79.65701
776.524	49.07087
776.705	47.86849
776.886	23.50319
777.068	57.54697
777.249	98.22407
777.43	86.72558
777.611	32.70377
777.793	48.18683
777.974	79.14605
778.155	45.21643
778.336	37.11602
778.517	88.57105
778.698	40.30941
778.879	17.91696
779.061	8.79285
779.242	60.6861
779.423	61.87525
779.604	49.37823
779.785	48.7729
779.966	55.43631
780.147	70.4916
780.328	70.2714
780.509	104.14851
780.69	63.05726
780.871	37.93588
781.051	22.86992
781.232	56.19826
781.413	58.58144
781.594	45.85634
781.775	42.30168
781.956	38.97221
782.137	16.24203
782.317	44.36463
782.498	59.54859
782.679	58.76246
782.86	54.53406
783.04	38.45478
783.221	57.90372
783.402	92.75797
783.583	52.55983
783.763	66.37778
783.944	41.88018
784.124	26.10029
784.305	83.17574
784.486	64.38667
784.666	50.55788
784.847	25.81104
785.027	101.89125
785.208	37.5649
785.388	40.42332
785.569	40.63401
785.749	41.51309
785.93	41.98339
786.11	25.77588
786.291	54.77994
786.471	55.63045
786.652	68.91651
786.832	49.62449
787.012	57.55345
787.193	28.5333
787.373	50.86149
787.553	43.15777
787.734	53.39083
787.914	42.79225
788.094	59.81458
788.275	55.71105
788.455	44.88566
788.635	27.62976
788.815	55.37649
788.995	31.53287
789.176	27.8288
789.356	36.7512
789.536	48.61336
789.716	59.71274
789.896	38.52828
790.076	42.16206
790.256	54.21794
790.436	12.95068
790.616	35.81439
790.796	55.77799
790.976	44.35872
791.156	43.00626
791.336	67.81407
791.516	54.93596
791.696	46.15221
791.876	25.59438
792.056	52.5879
792.236	66.23145
792.416	65.48008
792.596	64.42928
792.776	59.11555
792.956	63.5872
793.135	81.00544
793.315	30.75771
793.495	73.94746
793.675	61.51092
793.854	67.57339
794.034	69.62298
794.214	25.953
794.394	65.80157
794.573	69.80702
794.753	55.28553
794.933	36.11006
795.112	55.80449
795.292	66.06407
795.472	85.20559
795.651	26.72683
795.831	51.61153
796.01	45.46342
796.19	47.18598
796.369	46.35382
796.549	59.80878
796.728	46.28626
796.908	28.51075
797.087	32.84244
797.267	45.19724
797.446	29.80258
797.626	57.60308
797.805	60.71766
797.984	35.13393
798.164	61.1477
798.343	33.17822
798.522	57.33788
798.702	54.18275
798.881	27.21351
799.06	45.94319
799.239	20.08257
799.419	31.51554
799.598	75.93695
799.777	62.81609
799.956	72.70449
800.136	45.0732
800.315	37.55985
800.494	58.63408
800.673	69.43598
800.852	62.60397
801.031	73.07103
801.21	62.79203
801.389	41.91461
801.568	55.94973
801.747	86.50359
801.926	52.61874
802.105	82.17444
802.284	43.31889
802.463	77.70271
802.642	57.44143
802.821	57.94668
803	74.44029
803.179	67.41957
803.358	79.15386
803.537	36.04806
803.716	63.80451
803.895	39.44082
804.073	49.6389
804.252	41.6014
804.431	59.72343
804.61	47.40197
804.789	75.56184
804.967	42.68833
805.146	42.89671
805.325	92.39433
805.503	60.40999
805.682	28.44605
805.861	100.44885
806.039	74.61219
806.218	37.61128
806.397	60.43776
806.575	51.797
806.754	52.38385
806.932	35.14438
807.111	82.67308
807.289	69.85705
807.468	57.40982
807.646	73.08818
807.825	61.48683
808.003	59.21489
808.182	71.4974
808.36	53.79508
808.539	41.08813
808.717	85.55613
808.895	38.07432
809.074	61.66291
809.252	52.14143
809.43	68.30414
809.609	80.96
809.787	94.87677
809.965	49.56875
810.144	54.42234
810.322	45.45442
810.5	63.47471
810.678	50.56414
810.856	103.53152
811.035	77.63604
811.213	75.15092
811.391	80.4353
811.569	56.61641
811.747	117.29636
811.925	80.5882
812.103	39.96003
812.281	48.04981
812.459	98.35954
812.637	94.93806
812.816	76.14396
812.994	98.48611
813.171	74.80483
813.349	74.9168
813.527	85.16933
813.705	88.63503
813.883	106.9284
814.061	82.92678
814.239	101.31077
814.417	111.58091
814.595	68.88265
814.773	67.33108
814.95	62.90124
815.128	71.07428
815.306	56.48391
815.484	55.84469
815.662	45.71507
815.839	34.73634
816.017	43.61232
816.195	87.26832
816.372	53.69522
816.55	76.14444
816.728	90.78026
816.905	57.38115
817.083	94.92969
817.261	54.08238
817.438	112.11611
817.616	104.88171
817.793	47.78617
817.971	73.21501
818.148	69.50582
818.326	91.01155
818.503	72.50316
818.681	86.12011
818.858	47.4584
819.036	58.84568
819.213	63.59677
819.391	43.82893
819.568	39.98852
819.745	36.74878
819.923	69.95863
820.1	43.78679
820.277	37.44594
820.455	44.64091
820.632	47.03943
820.809	48.75657
820.986	28.61921
821.164	21.76485
821.341	17.938
821.518	26.19613
821.695	17.59802
821.872	14.79827
822.05	13.17064
822.227	8.23886
822.404	9.86477
822.581	12.89491
822.758	8.97196
822.935	9.10449
823.112	11.81336
823.289	7.72478
823.466	11.94014
823.643	10.70468
823.82	15.95561
823.997	13.27073
824.174	17.97769
824.351	27.5333
824.528	25.20681
824.705	20.35986
824.882	24.78702
825.059	35.40781
825.236	21.35781
825.412	23.259
825.589	31.27629
825.766	46.27285
825.943	26.29871
826.12	30.93778
826.296	18.26984
826.473	25.71258
826.65	25.12824
826.827	33.77915
827.003	20.00213
827.18	21.72245
827.357	26.81332
827.533	23.3688
827.71	10.26705
827.887	20.03524
828.063	24.94662
828.24	20.15114
828.416	32.14947
828.593	24.55923
828.769	39.6605
828.946	46.83372
829.122	46.77104
829.299	48.83459
829.475	21.70851
829.652	45.79679
829.828	78.23961
830.005	49.37429
830.181	62.95569
830.357	41.71758
830.534	67.58811
830.71	48.0547
830.886	62.44554
831.063	58.3982
831.239	85.60191
831.415	32.39632
831.592	86.48911
831.768	47.86867
831.944	40.10656
832.12	79.57607
832.296	73.72707
832.473	63.65731
832.649	48.25352
832.825	58.67842
833.001	32.70616
833.177	50.49917
833.353	45.63232
833.529	23.49597
833.705	33.65368
833.881	23.45111
834.058	23.73331
834.234	26.48155
834.41	27.9659
834.586	20.113
834.761	28.53764
834.937	30.59258
835.113	34.03028
835.289	29.02451
835.465	40.13401
835.641	33.40317
835.817	41.88024
835.993	74.32159
836.169	33.17094
836.344	50.54564
836.52	63.63312
836.696	67.64824
836.872	39.63123
837.048	134.70531
837.223	43.68784
837.399	111.91037
837.575	79.9403
837.75	72.04205
837.926	102.38144
838.102	172.32236
838.277	124.75614
838.453	164.20367
838.628	156.71531
838.804	51.34476
838.98	156.8238
839.155	73.16653
839.331	103.52279
839.506	70.00063
839.682	75.47866
839.857	90.14931
840.033	102.27949
840.208	46.06055
840.384	20.53212
840.559	49.45222
840.734	82.36703
840.91	115.20313
841.085	72.12052
841.26	72.09201
841.436	66.86479
841.611	61.7161
841.786	101.77908
841.962	151.68838
842.137	89.39817
842.312	45.53385
842.487	75.60398
842.663	58.68218
842.838	67.89848
843.013	241.04666
843.188	127.9654
843.363	92.63199
843.538	223.5919
843.714	198.86337
843.889	218.94711
844.064	231.37237
844.239	182.73354
844.414	276.42123
844.589	163.27301
844.764	262.82192
844.939	255.2795
845.114	302.79114
845.289	298.71632
845.464	377.07487
845.639	271.39662
845.814	116.11292
845.989	176.46637
846.163	187.53723
846.338	207.63683
846.513	297.01251
846.688	205.14316
846.863	220.53802
847.038	163.9851
847.212	181.63236
847.387	192.56832
847.562	221.32632
847.737	238.03024
847.911	113.82474
848.086	121.79879
848.261	297.83399
848.435	201.04633
848.61	295.11908
848.785	120.63509
848.959	276.03159
849.134	338.69985
849.308	419.68621
849.483	205.74227
849.658	317.04866
849.832	170.3324
850.007	144.8095
850.181	481.59835
850.356	158.22854
850.53	331.77932
850.705	139.03089
850.879	75.36766
851.053	179.58892
851.228	172.60071
851.402	244.96071
851.577	278.66749
851.751	374.1903
851.925	215.93916
852.099	96.24426
852.274	149.91878
852.448	203.18683
852.622	251.09724
852.797	185.88386
852.971	225.09004
853.145	278.37708
853.319	424.9682
853.493	315.95276
853.668	204.631
853.842	387.06945
854.016	319.00451
854.19	394.03262
854.364	219.46996
854.538	269.2021
854.712	291.60744
854.886	228.92643
855.06	220.91629
855.234	70.5397
855.408	350.33197
855.582	282.74032
855.756	324.63933
855.93	319.77144
856.104	280.00246
856.278	297.25106
856.452	219.42529
856.626	293.30097
856.8	410.78319
856.973	276.51505
857.147	298.3806
857.321	283.20441
857.495	281.24065
857.669	242.52558
857.842	192.02509
858.016	311.42276
858.19	137.41635
858.364	537.38236
858.537	202.86279
858.711	230.2926
858.885	210.8967
859.058	160.48511
859.232	107.63827
859.405	90.79784
859.579	300.31381
859.753	286.57256
859.926	150.97675
860.1	126.84195
860.273	236.24731
860.447	355.75679
860.62	179.68942
860.794	370.001
860.967	229.45222
861.141	331.55062
861.314	503.54324
861.487	236.28592
861.661	302.94761
861.834	398.39932
862.008	297.31192
862.181	226.42069
862.354	269.60861
862.528	314.62602
862.701	195.04713
862.874	126.17242
863.047	189.5075
863.221	208.05092
863.394	101.06174
863.567	304.44437
863.74	79.68198
863.913	313.04073
864.087	293.95347
864.26	298.81729
864.433	211.07693
864.606	420.14853
864.779	208.03593
864.952	116.96678
865.125	204.88602
865.298	234.32979
865.471	208.7835
865.644	363.28086
865.817	281.12407
865.99	323.50023
866.163	318.91544
866.336	199.93256
866.509	217.58468
866.682	192.58854
866.855	321.95445
867.028	115.1328
867.2	260.25442
867.373	68.26594
867.546	232.91832
867.719	413.67435
867.892	260.72241
868.064	149.39968
868.237	233.1811
868.41	207.44588
868.583	104.44356
868.755	125.20233
868.928	190.89146
869.101	390.06426
869.273	297.22638
869.446	239.34097
869.619	308.31321
869.791	224.755
869.964	308.96468
870.136	305.2951
870.309	206.82184
870.481	228.70719
870.654	101.86586
870.826	218.00591
870.999	162.94025
871.171	265.15748
871.344	133.41454
871.516	171.64094
871.689	154.93425
871.861	218.38154
872.033	167.99092
872.206	170.07613
872.378	251.53471
872.55	203.46163
872.723	131.6177
872.895	206.35952
873.067	282.9941
873.24	254.27132
873.412	168.73665
873.584	206.99248
873.756	190.23729
873.928	232.90662
874.101	224.51798
874.273	240.33715
874.445	80.48918
874.617	125.1482
874.789	219.57428
874.961	166.88558
875.133	257.67917
875.305	207.03632
875.477	139.27425
875.649	114.18198
875.821	139.79448
875.993	321.85804
876.165	141.9979
876.337	210.42054
876.509	218.29978
876.681	209.03543
876.853	185.12912
877.025	196.78536
877.197	134.8469
877.369	124.03075
877.541	225.43769
877.712	55.6125
877.884	118.57989
878.056	198.45005
878.228	113.46541
878.4	242.42712
878.571	111.41394
878.743	74.45061
878.915	161.53036
879.086	104.64578
879.258	132.68382
879.43	112.04927
879.601	93.93241
879.773	96.26752
879.945	21.54968
880.116	36.17092
880.288	20.601
880.459	23.934
880.631	16.54088
880.802	20.26774
880.974	19.13051
881.145	12.7283
881.317	17.77811
881.488	12.54596
881.66	13.68321
881.831	12.61976
882.002	20.40579
882.174	12.43484
882.345	19.55216
882.517	5.9519
882.688	26.30717
882.859	19.23994
883.03	36.91333
883.202	38.08073
883.373	29.03396
883.544	29.71411
883.715	54.24586
883.887	47.49695
884.058	40.61035
884.229	55.42001
884.4	56.07261
884.571	69.42464
884.742	54.99413
884.914	60.924
885.085	87.04405
885.256	135.28683
885.427	92.48523
885.598	117.06673
885.769	118.70299
885.94	109.47373
886.111	72.93041
886.282	134.33027
886.453	109.97279
886.624	82.38565
886.795	149.72166
886.966	119.83508
887.136	157.93311
887.307	116.532
887.478	213.76049
887.649	179.34777
887.82	186.79904
887.991	160.25409
888.161	221.92448
888.332	193.66007
888.503	94.49045
888.674	267.32197
888.844	296.18957
889.015	238.92579
889.186	113.95607
889.356	277.11313
889.527	94.61906
889.698	390.64409
889.868	147.63773
890.039	230.67357
890.209	179.30364
890.38	242.18696
890.551	231.0477
890.721	332.55102
890.892	268.97291
891.062	177.73388
891.233	210.10001
891.403	194.95555
891.574	130.00141
891.744	163.84384
891.914	210.27584
892.085	164.2859
892.255	55.7159
892.425	271.27936
892.596	192.50574
892.766	207.77061
892.936	267.00136
893.107	207.20106
893.277	118.70744
893.447	95.21852
893.618	56.76436
893.788	121.48163
893.958	68.27825
894.128	59.40578
894.298	80.50993
894.468	98.30978
894.639	43.51312
894.809	27.83867
894.979	51.20993
895.149	62.94447
895.319	46.05205
895.489	76.32921
895.659	98.11917
895.829	63.57835
895.999	71.86626
896.169	55.71003
896.339	81.01959
896.509	163.16292
896.679	169.51787
896.849	183.78502
897.019	254.28055
897.189	187.04883
897.358	156.24717
897.528	262.07356
897.698	98.9842
897.868	208.2923
898.038	348.42918
898.208	422.17174
898.377	103.41776
898.547	348.10831
898.717	526.0581
898.886	218.79204
899.056	349.9356
899.226	487.45128
899.395	335.07369
899.565	512.74814
899.735	322.39089
899.904	572.30914
900.074	552.63138
900.244	178.81453
900.413	678.92672
900.583	181.60325
900.752	352.29918
900.922	565.77729
901.091	21.85223
901.261	442.91814
901.43	367.18471
901.599	430.01326
901.769	835.95055
901.938	391.45205
902.108	303.1954
902.277	449.04748
902.446	146.43617
902.616	180.6745
902.785	172.11531
902.954	337.74147
903.124	208.3974
903.293	142.98146
903.462	78.54719
903.631	115.37982
903.801	86.09938
903.97	41.38216
904.139	74.1897
904.308	57.57552
904.477	48.87966
904.646	26.70761
904.816	48.2884
904.985	72.39783
905.154	113.72733
