Data from WindowProjectSample3_Transmission__47__00047.txt Node

Date: Sun May 04 11:15:17 EDT 2025
User: jessi
Spectrometer: SR400872
Trigger mode: 0
Integration Time (sec): 5.000050E-1
Scans to average: 20
Electric dark correction enabled: true
Nonlinearity correction enabled: true
Boxcar width: 0
XAxis mode: Wavelengths
Number of Pixels in Spectrum: 3648
>>>>>Begin Spectral Data<<<<<
184.909	-1298.38589
185.132	-1469.46989
185.355	-1134.86551
185.578	-1079.14037
185.801	806.60053
186.024	-959.36438
186.247	-4829.08555
186.47	-1641.38357
186.693	-295.42073
186.916	-457.06508
187.139	-795.21271
187.362	-2802.35916
187.585	-744.31152
187.808	-5043.67402
188.031	11569.48261
188.254	-2366.33188
188.476	-9016.63115
188.699	-1051.34271
188.922	571.67502
189.145	-1191.70282
189.368	3345.32336
189.591	-2313.44806
189.813	-1481.06028
190.036	-848.86847
190.259	-1143.18992
190.482	-1604.54984
190.705	-2379.26237
190.927	-702.75911
191.15	-1476.32628
191.373	-1116.34511
191.595	-1255.1873
191.818	-1316.5038
192.041	-693.291
192.263	-1089.16435
192.486	-569.27949
192.709	-1507.2673
192.931	-3264.44135
193.154	-1164.94109
193.377	-1677.97936
193.599	-3227.41222
193.822	-3350.20518
194.044	-3327.95606
194.267	-1754.97354
194.489	-342.18623
194.712	-974.4096
194.934	-1753.50478
195.157	-688.82008
195.379	-1191.48848
195.602	-871.12379
195.824	-1312.15411
196.047	-2000.25077
196.269	-1091.82856
196.492	-1384.69321
196.714	-1211.19956
196.936	-1253.19796
197.159	-899.67709
197.381	-733.43395
197.604	-493.55574
197.826	-2093.2802
198.048	-1093.11797
198.271	-1611.88431
198.493	-1164.01571
198.715	-891.8209
198.938	-3290.45382
199.16	-4119.80949
199.382	-1231.04329
199.604	-1129.50486
199.827	-1852.70729
200.049	-1582.3343
200.271	-1269.76889
200.493	-1432.87879
200.715	-963.1985
200.938	-846.83497
201.16	-932.12059
201.382	-984.76572
201.604	-1235.91672
201.826	-725.33675
202.048	-809.75411
202.27	-1411.89321
202.492	-1413.03074
202.715	-1848.24255
202.937	-2031.5508
203.159	-1372.98492
203.381	-1561.79531
203.603	-970.86509
203.825	-5254.46948
204.047	-1607.19876
204.269	-1360.12817
204.491	-1278.6757
204.713	-1538.04564
204.935	-1412.04906
205.156	-2726.63054
205.378	-2569.53853
205.6	-1548.43938
205.822	-1112.13713
206.044	1183.48879
206.266	-1241.44285
206.488	-890.7774
206.71	-1672.22577
206.932	-1771.88708
207.153	-1069.72929
207.375	-1336.68983
207.597	-1072.33218
207.819	-1077.13846
208.041	-1173.62156
208.262	-1480.75667
208.484	-833.61211
208.706	-2053.12564
208.927	-774.49348
209.149	-1364.24366
209.371	-1175.99374
209.593	-1382.62416
209.814	-580.0356
210.036	-926.1602
210.258	-736.22836
210.479	-990.09858
210.701	-1729.52945
210.922	-1253.45047
211.144	-998.75056
211.366	-1071.7537
211.587	1310.08731
211.809	-1144.56769
212.03	-6436.38814
212.252	935.46196
212.473	-957.0319
212.695	-17103.04204
212.916	-3445.98451
213.138	-1502.48765
213.359	-969.86472
213.581	-1442.49272
213.802	-872.91491
214.024	-1349.93697
214.245	-11627.65473
214.466	-669.91544
214.688	-1447.40056
214.909	-1014.08576
215.131	-2648.95653
215.352	-3841.5894
215.573	-1085.70236
215.795	-1776.32254
216.016	-1487.66728
216.237	-3029.74158
216.459	-1455.3261
216.68	-1050.8967
216.901	-1460.68356
217.122	11263.18541
217.344	-1003.77359
217.565	-1301.27778
217.786	-1327.14184
218.007	-888.32311
218.228	-1237.35854
218.45	-1135.3276
218.671	-1007.91221
218.892	-993.74159
219.113	-1571.73181
219.334	-99.75287
219.555	-1344.10262
219.776	-1529.86374
219.997	-1209.52172
220.219	17200.80607
220.44	-1165.82163
220.661	-3175.88315
220.882	-907.05175
221.103	1675.43158
221.324	-2743.02709
221.545	-1117.83742
221.766	-1303.92877
221.987	-1804.87889
222.208	-2030.70881
222.429	-752.94313
222.65	-1008.54551
222.87	-1656.57409
223.091	-3319.87861
223.312	3141.1606
223.533	-1157.90176
223.754	-1549.87234
223.975	-2195.28884
224.196	8511.63106
224.417	-7563.5462
224.637	3992.45278
224.858	211.19882
225.079	-1895.82136
225.3	26356.57691
225.521	-1031.52295
225.741	-5402.45517
225.962	7099.85638
226.183	326.04204
226.404	-3674.00785
226.624	2446.22947
226.845	-81961.69724
227.066	-637852.25291
227.286	870.60751
227.507	304.80108
227.728	277.96085
227.948	666.66571
228.169	162.97009
228.389	172.385
228.61	98.25426
228.831	130.28876
229.051	13.84673
229.272	69.45297
229.492	107.86522
229.713	27.33082
229.933	71.36268
230.154	61.34896
230.374	99.02746
230.595	70.74979
230.815	42.20408
231.036	70.97673
231.256	-12.03147
231.477	131.05362
231.697	75.06658
231.917	77.78245
232.138	114.63174
232.358	241.19699
232.579	191.89627
232.799	32.17143
233.019	195.25623
233.24	237.12649
233.46	82.39216
233.68	121.83428
233.901	80.66905
234.121	51.21619
234.341	26.50167
234.561	-9.03477
234.782	73.17655
235.002	135.04878
235.222	1.04011
235.442	118.4543
235.662	54.39004
235.883	115.42913
236.103	96.54167
236.323	63.38965
236.543	49.5864
236.763	72.70985
236.983	82.53073
237.203	75.18399
237.423	114.88998
237.643	170.84593
237.864	146.51415
238.084	38.65297
238.304	49.08563
238.524	85.09906
238.744	79.59737
238.964	129.67219
239.184	112.63734
239.404	125.79864
239.624	63.23913
239.843	106.05622
240.063	63.12322
240.283	41.7463
240.503	44.38195
240.723	45.67057
240.943	29.48721
241.163	32.38539
241.383	25.15213
241.603	12.89079
241.822	15.57818
242.042	11.14953
242.262	13.98371
242.482	15.06593
242.702	16.79662
242.921	5.30163
243.141	10.85654
243.361	10.64218
243.581	15.33161
243.8	12.53959
244.02	8.37042
244.24	14.9169
244.459	14.30342
244.679	29.83036
244.899	18.42044
245.118	22.68964
245.338	20.6261
245.558	23.92217
245.777	13.91608
245.997	16.82679
246.216	17.46261
246.436	10.0779
246.655	7.36389
246.875	5.65981
247.094	10.33395
247.314	3.82625
247.533	6.60698
247.753	6.89807
247.972	5.38168
248.192	2.21121
248.411	3.36333
248.631	5.39089
248.85	7.08398
249.07	6.67586
249.289	9.72988
249.508	7.1732
249.728	11.47953
249.947	11.17183
250.166	14.65451
250.386	7.48992
250.605	11.43244
250.824	18.45345
251.044	12.79835
251.263	38.57778
251.482	22.87911
251.701	19.23324
251.921	0.69303
252.14	6.66759
252.359	7.6584
252.578	16.28607
252.798	6.07348
253.017	14.24896
253.236	7.42162
253.455	9.26074
253.674	17.93221
253.893	8.44954
254.112	13.39595
254.331	18.35419
254.551	15.99588
254.77	7.61271
254.989	22.4322
255.208	18.73107
255.427	26.01472
255.646	21.46352
255.865	33.14886
256.084	15.36172
256.303	18.42159
256.522	22.62541
256.741	5.24325
256.96	6.48549
257.179	14.82402
257.397	18.17811
257.616	10.24504
257.835	10.08673
258.054	24.85266
258.273	16.9034
258.492	17.19059
258.711	11.11626
258.93	5.07488
259.148	7.73382
259.367	7.28411
259.586	9.3036
259.805	4.27871
260.023	7.67955
260.242	5.73642
260.461	4.31707
260.68	2.30811
260.898	6.58988
261.117	2.39487
261.336	1.53425
261.554	5.41141
261.773	5.65659
261.992	1.45666
262.21	5.41553
262.429	6.31474
262.648	10.80427
262.866	12.30639
263.085	9.52134
263.303	7.56693
263.522	14.01788
263.74	13.57463
263.959	23.60529
264.178	12.39831
264.396	11.14867
264.615	7.68887
264.833	17.68895
265.051	14.78088
265.27	17.7124
265.488	17.30509
265.707	10.61692
265.925	17.59587
266.144	8.43418
266.362	9.18559
266.58	9.72752
266.799	8.10774
267.017	9.59554
267.235	8.69964
267.454	6.05639
267.672	3.07845
267.89	6.8861
268.109	7.48711
268.327	7.41295
268.545	1.68826
268.763	6.50557
268.982	3.0145
269.2	7.82698
269.418	5.0963
269.636	3.8823
269.854	7.24317
270.073	4.80198
270.291	3.18765
270.509	3.16583
270.727	7.43713
270.945	11.74643
271.163	11.42741
271.381	2.88208
271.599	4.9804
271.817	8.02368
272.036	2.80332
272.254	5.60619
272.472	3.83772
272.69	3.89986
272.908	4.06361
273.126	6.39226
273.344	8.46753
273.562	3.15195
273.779	4.5567
273.997	6.74759
274.215	6.13169
274.433	4.92282
274.651	7.12475
274.869	7.34435
275.087	4.40063
275.305	6.75467
275.523	4.36015
275.74	5.00797
275.958	9.0881
276.176	12.51726
276.394	3.72868
276.612	5.55587
276.829	5.1884
277.047	4.71876
277.265	5.00281
277.483	5.90221
277.7	6.71384
277.918	5.80563
278.136	10.15795
278.353	4.7619
278.571	3.07086
278.789	7.70665
279.006	1.84719
279.224	4.94465
279.442	7.71731
279.659	5.87966
279.877	3.78945
280.094	8.18453
280.312	1.72764
280.529	5.64777
280.747	2.203
280.964	4.8535
281.182	8.9691
281.399	5.02202
281.617	5.91769
281.834	4.34657
282.052	3.29822
282.269	5.30537
282.487	4.26446
282.704	3.6203
282.921	3.50466
283.139	5.29442
283.356	6.87292
283.574	6.28616
283.791	2.96892
284.008	8.46295
284.226	4.98234
284.443	5.46961
284.66	6.99707
284.877	5.93834
285.095	3.64523
285.312	2.65736
285.529	1.58116
285.746	1.58349
285.964	3.57467
286.181	2.45662
286.398	3.28781
286.615	4.54026
286.832	4.1602
287.05	1.13081
287.267	2.99332
287.484	3.18152
287.701	4.48949
287.918	4.2583
288.135	4.53703
288.352	1.97506
288.569	2.56496
288.786	4.10682
289.003	3.0512
289.22	4.97676
289.437	2.86347
289.654	4.76633
289.871	4.77901
290.088	4.79438
290.305	3.74444
290.522	3.18833
290.739	3.3531
290.956	4.91084
291.173	5.81517
291.39	5.47933
291.607	3.78172
291.824	3.04613
292.04	2.25929
292.257	4.80608
292.474	5.31065
292.691	3.40111
292.908	1.88103
293.125	2.89972
293.341	1.91839
293.558	8.15577
293.775	3.38309
293.992	4.02218
294.208	1.44994
294.425	2.35589
294.642	3.18285
294.858	4.35866
295.075	1.25906
295.292	3.43514
295.508	3.99068
295.725	5.69867
295.942	2.89605
296.158	2.18828
296.375	3.39959
296.591	2.6567
296.808	2.71982
297.024	3.19329
297.241	3.47212
297.458	3.74961
297.674	0.35759
297.891	3.03762
298.107	2.39041
298.323	1.78691
298.54	4.31294
298.756	2.21324
298.973	1.01544
299.189	4.53901
299.406	2.09679
299.622	4.52464
299.838	4.70829
300.055	4.23331
300.271	0.9808
300.487	1.71713
300.704	2.09203
300.92	1.07661
301.136	6.32253
301.353	4.76808
301.569	3.54413
301.785	3.53016
302.001	4.22046
302.218	3.83797
302.434	4.013
302.65	1.33522
302.866	2.45504
303.083	6.5119
303.299	6.20322
303.515	3.32077
303.731	3.54152
303.947	1.31639
304.163	2.19465
304.379	3.4223
304.595	3.99153
304.812	2.22186
305.028	2.10439
305.244	2.53446
305.46	4.35491
305.676	4.35274
305.892	5.29128
306.108	3.88267
306.324	2.9038
306.54	6.01485
306.756	4.13566
306.972	4.0172
307.187	2.85568
307.403	5.77834
307.619	2.37917
307.835	4.98274
308.051	5.19692
308.267	1.85077
308.483	4.69526
308.699	3.96783
308.914	3.17926
309.13	3.42498
309.346	0.86003
309.562	1.66138
309.778	1.14113
309.993	3.94935
310.209	3.08862
310.425	1.39468
310.641	2.68509
310.856	1.68505
311.072	1.67882
311.288	3.02697
311.503	3.19516
311.719	0.70055
311.935	0.58698
312.15	3.4324
312.366	3.13922
312.581	3.64296
312.797	2.85282
313.013	4.02407
313.228	2.18281
313.444	3.16043
313.659	2.05094
313.875	3.71253
314.09	3.11203
314.306	5.09375
314.521	4.35027
314.737	4.22884
314.952	3.47929
315.168	3.31943
315.383	3.77672
315.599	3.0086
315.814	2.94065
316.029	4.57415
316.245	1.50317
316.46	1.06249
316.675	5.17884
316.891	6.16155
317.106	7.54147
317.321	4.27437
317.537	3.93384
317.752	4.38283
317.967	4.29554
318.183	2.20575
318.398	2.81031
318.613	4.95964
318.828	5.50828
319.043	4.7071
319.259	3.00793
319.474	3.78496
319.689	5.17784
319.904	0.69398
320.119	4.59348
320.334	3.93922
320.549	3.05191
320.765	5.18343
320.98	3.72725
321.195	4.70353
321.41	3.52764
321.625	4.71749
321.84	5.95214
322.055	6.14033
322.27	2.5208
322.485	2.00004
322.7	3.81241
322.915	5.12242
323.13	2.18394
323.345	5.79097
323.56	4.15297
323.775	4.44611
323.989	4.04158
324.204	3.66611
324.419	4.6106
324.634	1.42122
324.849	3.13204
325.064	6.35839
325.279	4.83063
325.493	4.27253
325.708	4.992
325.923	2.399
326.138	2.41601
326.352	5.86613
326.567	4.64703
326.782	3.00124
326.997	2.19991
327.211	4.27971
327.426	4.07294
327.641	2.98418
327.855	1.19999
328.07	4.19016
328.285	6.06006
328.499	3.22723
328.714	4.0097
328.928	4.86501
329.143	3.46777
329.358	5.32699
329.572	4.94748
329.787	5.46655
330.001	7.47513
330.216	1.54746
330.43	6.11049
330.645	6.11691
330.859	4.8725
331.074	2.57408
331.288	3.74793
331.503	5.89018
331.717	2.06271
331.931	3.4667
332.146	3.93363
332.36	6.54745
332.575	4.32176
332.789	3.98538
333.003	3.32744
333.218	4.31332
333.432	2.54215
333.646	4.90635
333.86	5.96776
334.075	6.29972
334.289	2.82837
334.503	2.14375
334.717	4.30196
334.932	4.38708
335.146	5.25677
335.36	2.84877
335.574	4.41599
335.788	4.14777
336.003	5.19566
336.217	4.90619
336.431	4.36991
336.645	2.80507
336.859	1.986
337.073	3.52084
337.287	3.83633
337.501	2.32361
337.715	4.14591
337.929	4.46428
338.143	1.958
338.357	3.51523
338.571	2.34378
338.785	4.26586
338.999	3.00721
339.213	2.62467
339.427	1.68259
339.641	5.12342
339.855	2.88862
340.069	2.42648
340.283	5.11353
340.497	5.86894
340.711	4.15179
340.924	3.16393
341.138	2.10896
341.352	1.46812
341.566	3.72722
341.78	1.02098
341.993	2.52004
342.207	2.17578
342.421	3.80659
342.635	3.31071
342.848	2.62091
343.062	0.47334
343.276	2.34093
343.49	6.46349
343.703	2.38305
343.917	4.6398
344.131	4.71127
344.344	2.31829
344.558	2.53134
344.771	1.9544
344.985	4.99612
345.199	5.69294
345.412	3.75241
345.626	3.6831
345.839	0.93456
346.053	1.90541
346.266	1.88812
346.48	4.33289
346.693	3.70128
346.907	4.00148
347.12	2.09539
347.334	3.6382
347.547	3.70449
347.76	2.89602
347.974	4.9949
348.187	3.85895
348.401	3.08221
348.614	2.69752
348.827	2.99639
349.041	4.11371
349.254	0.95517
349.467	3.3232
349.681	1.70241
349.894	2.38634
350.107	5.09496
350.32	5.88043
350.534	1.21262
350.747	2.79931
350.96	1.9478
351.173	2.24579
351.386	2.59041
351.6	2.55297
351.813	2.30417
352.026	3.22102
352.239	1.40287
352.452	2.97218
352.665	4.46835
352.878	2.85597
353.092	6.09735
353.305	4.04294
353.518	3.29866
353.731	2.20342
353.944	4.53204
354.157	2.46682
354.37	1.98035
354.583	1.86332
354.796	0.9203
355.009	4.74437
355.222	3.33209
355.435	3.23877
355.647	4.57729
355.86	1.6815
356.073	3.02599
356.286	2.4169
356.499	4.03265
356.712	3.64582
356.925	3.38666
357.138	4.31094
357.35	1.59928
357.563	2.53948
357.776	2.94048
357.989	2.50519
358.201	3.6279
358.414	3.13891
358.627	4.13829
358.84	2.56543
359.052	1.44613
359.265	1.44496
359.478	4.13777
359.69	-0.36478
359.903	3.88267
360.116	3.95303
360.328	0.81392
360.541	3.76976
360.753	1.59322
360.966	2.10835
361.179	2.13043
361.391	2.01061
361.604	1.41899
361.816	2.09238
362.029	1.84374
362.241	1.48432
362.454	1.90125
362.666	1.59206
362.879	2.57008
363.091	2.09215
363.304	1.5481
363.516	2.46568
363.728	1.12723
363.941	3.24269
364.153	2.0071
364.366	0.0059
364.578	1.29228
364.79	3.17012
365.003	2.47748
365.215	1.99899
365.427	3.14351
365.639	4.12555
365.852	2.83303
366.064	4.76652
366.276	1.97353
366.488	3.16496
366.701	2.10139
366.913	2.42034
367.125	2.4391
367.337	1.82243
367.549	2.06792
367.762	2.70609
367.974	2.71823
368.186	1.85742
368.398	4.03305
368.61	3.41171
368.822	3.51177
369.034	2.66117
369.246	3.36454
369.458	5.56347
369.67	1.49047
369.882	5.07635
370.094	0.27652
370.306	4.88268
370.518	2.39519
370.73	2.00188
370.942	1.66003
371.154	2.37553
371.366	1.99904
371.578	2.94188
371.79	1.72279
372.002	4.07649
372.214	4.82788
372.425	2.90039
372.637	4.337
372.849	3.07829
373.061	-0.00557
373.273	3.49297
373.484	3.32472
373.696	3.71778
373.908	0.06583
374.12	4.04978
374.331	3.18894
374.543	1.73045
374.755	1.49462
374.967	2.87254
375.178	3.66842
375.39	2.41988
375.602	2.68868
375.813	1.10413
376.025	1.15005
376.236	2.47938
376.448	2.80936
376.66	2.22756
376.871	1.88909
377.083	3.76037
377.294	3.88676
377.506	1.95336
377.717	4.15155
377.929	2.85835
378.14	1.71583
378.352	3.23053
378.563	3.09407
378.775	4.11624
378.986	1.77256
379.197	2.476
379.409	2.08499
379.62	3.6994
379.832	2.85837
380.043	2.42907
380.254	2.87697
380.466	1.18886
380.677	5.9432
380.888	5.28243
381.1	5.76732
381.311	5.10129
381.522	2.60418
381.733	6.20168
381.945	2.34708
382.156	2.91654
382.367	1.98034
382.578	6.07006
382.789	5.99582
383.001	2.13666
383.212	4.41603
383.423	4.56695
383.634	4.01608
383.845	3.25277
384.056	2.17948
384.267	2.70225
384.478	2.60868
384.69	1.42986
384.901	3.4439
385.112	3.24148
385.323	4.65108
385.534	3.28585
385.745	2.96804
385.956	3.21639
386.167	1.62753
386.378	3.50549
386.588	1.35909
386.799	1.90361
387.01	0.91108
387.221	3.76417
387.432	2.51586
387.643	4.96665
387.854	2.42518
388.065	2.38818
388.275	2.579
388.486	2.35484
388.697	2.74825
388.908	2.30062
389.119	4.19443
389.329	4.86432
389.54	2.93459
389.751	3.11589
389.962	4.27195
390.172	3.09757
390.383	2.1295
390.594	1.94406
390.804	2.10176
391.015	2.13623
391.226	2.78247
391.436	3.41125
391.647	3.20239
391.858	3.53072
392.068	0.91791
392.279	1.44238
392.489	2.82642
392.7	3.97887
392.91	1.59534
393.121	1.86921
393.331	3.24797
393.542	4.03504
393.752	3.06695
393.963	2.93758
394.173	2.85808
394.384	3.57743
394.594	2.86889
394.804	1.50705
395.015	2.99144
395.225	3.61151
395.436	1.48069
395.646	3.44492
395.856	1.90209
396.067	1.47476
396.277	4.21003
396.487	3.30073
396.697	2.88716
396.908	3.78758
397.118	3.79185
397.328	3.1709
397.538	4.11354
397.749	2.2917
397.959	4.01457
398.169	3.78449
398.379	1.6261
398.589	3.8531
398.8	3.19905
399.01	3.10732
399.22	2.53521
399.43	5.57449
399.64	2.64288
399.85	3.71065
400.06	2.92467
400.27	2.34444
400.48	3.19968
400.69	4.75617
400.9	2.49357
401.11	2.21972
401.32	4.14453
401.53	2.56963
401.74	4.8967
401.95	4.09002
402.16	2.07063
402.37	3.69464
402.58	2.44868
402.79	3.87545
403	4.21307
403.209	2.48209
403.419	4.0618
403.629	2.60861
403.839	3.94671
404.049	4.08163
404.258	2.30319
404.468	2.01506
404.678	3.74136
404.888	3.82848
405.097	2.12181
405.307	3.04192
405.517	3.66386
405.727	3.3622
405.936	2.70481
406.146	3.31684
406.356	4.62306
406.565	3.19821
406.775	2.57372
406.984	2.6708
407.194	5.08205
407.404	3.24226
407.613	3.59881
407.823	4.17107
408.032	4.66726
408.242	4.46055
408.451	2.76631
408.661	3.16977
408.87	5.35784
409.08	2.94373
409.289	3.85967
409.499	3.54686
409.708	3.54273
409.918	1.24305
410.127	3.41822
410.336	5.03252
410.546	4.02077
410.755	3.05361
410.964	2.86181
411.174	2.6691
411.383	4.0326
411.592	3.96576
411.802	2.33202
412.011	4.68311
412.22	3.55157
412.429	4.97465
412.639	4.92549
412.848	5.10456
413.057	5.43315
413.266	4.81194
413.475	3.5857
413.685	4.43221
413.894	4.62776
414.103	5.0505
414.312	4.4003
414.521	3.59512
414.73	3.69434
414.939	5.61813
415.148	4.33679
415.357	3.89567
415.566	3.31239
415.776	3.23258
415.985	3.14443
416.194	4.5333
416.403	5.2531
416.611	2.30879
416.82	2.91217
417.029	3.57714
417.238	2.75084
417.447	2.50685
417.656	2.94131
417.865	2.63658
418.074	2.9473
418.283	3.2286
418.492	4.05178
418.7	3.8177
418.909	4.66586
419.118	3.39928
419.327	3.63967
419.536	3.30437
419.744	2.73958
419.953	3.93817
420.162	3.93675
420.371	2.58888
420.579	2.34614
420.788	3.57689
420.997	3.49449
421.205	3.60522
421.414	3.16218
421.623	3.17941
421.831	2.71593
422.04	3.67444
422.249	2.78801
422.457	3.54885
422.666	2.8593
422.874	3.99174
423.083	3.96622
423.291	3.78838
423.5	3.38601
423.708	3.54311
423.917	3.90978
424.125	3.3822
424.334	3.10232
424.542	4.98754
424.751	4.1734
424.959	4.03938
425.167	4.41717
425.376	4.3589
425.584	3.66636
425.793	4.12331
426.001	3.13551
426.209	4.3829
426.418	3.23352
426.626	3.47617
426.834	3.22631
427.042	3.89607
427.251	3.28759
427.459	4.71598
427.667	4.28175
427.875	2.90931
428.084	3.55598
428.292	5.21903
428.5	4.39806
428.708	3.1128
428.916	3.08804
429.124	4.14693
429.333	3.83199
429.541	3.74594
429.749	4.06559
429.957	3.88664
430.165	6.0536
430.373	2.96676
430.581	4.31885
430.789	5.36035
430.997	3.46421
431.205	3.52789
431.413	4.06918
431.621	3.76464
431.829	4.61019
432.037	3.68475
432.245	4.41049
432.453	4.26781
432.661	3.72108
432.869	5.6442
433.076	3.04402
433.284	3.83717
433.492	4.38076
433.7	5.07707
433.908	3.56512
434.116	4.0323
434.323	4.16917
434.531	3.99862
434.739	4.41971
434.947	4.86327
435.154	4.69803
435.362	4.27513
435.57	3.89881
435.778	3.70216
435.985	4.48823
436.193	3.85795
436.401	5.14887
436.608	4.20399
436.816	3.77686
437.023	5.74917
437.231	5.75638
437.439	4.39029
437.646	4.69654
437.854	4.61558
438.061	4.85475
438.269	3.98704
438.476	4.83186
438.684	4.42403
438.891	3.74552
439.099	3.49802
439.306	2.87408
439.514	3.30713
439.721	4.39993
439.929	3.5518
440.136	4.41344
440.343	4.35009
440.551	3.73697
440.758	5.58886
440.965	4.55192
441.173	4.22127
441.38	3.66593
441.587	4.44151
441.795	3.7495
442.002	4.53898
442.209	4.56994
442.416	4.92986
442.624	4.75452
442.831	4.72974
443.038	3.9139
443.245	3.54913
443.452	4.00802
443.66	5.15812
443.867	3.68192
444.074	3.8864
444.281	3.70595
444.488	4.03835
444.695	4.20668
444.902	3.79868
445.109	4.61773
445.316	3.92585
445.523	3.71521
445.73	3.31354
445.937	4.14556
446.144	4.45616
446.351	4.3681
446.558	3.44479
446.765	4.68476
446.972	4.81551
447.179	4.00581
447.386	5.18733
447.593	3.98495
447.8	5.18303
448.007	4.06342
448.214	4.35183
448.42	3.91878
448.627	5.31554
448.834	4.25372
449.041	4.22487
449.248	4.28426
449.454	5.36683
449.661	6.33686
449.868	4.34812
450.075	3.97769
450.281	2.80417
450.488	3.65096
450.695	3.92845
450.901	3.91151
451.108	4.34123
451.315	5.47013
451.521	4.44025
451.728	5.42726
451.935	3.921
452.141	4.43025
452.348	4.56248
452.554	4.25254
452.761	4.18633
452.967	5.90329
453.174	4.74064
453.38	4.88374
453.587	3.59134
453.793	4.70589
454	5.38788
454.206	6.52893
454.413	5.70693
454.619	5.01772
454.825	3.93504
455.032	5.19091
455.238	5.64361
455.445	3.6686
455.651	4.88763
455.857	3.1803
456.064	4.41549
456.27	4.44479
456.476	4.50354
456.682	3.47428
456.889	5.03678
457.095	5.23961
457.301	6.84909
457.507	4.71435
457.714	4.79421
457.92	4.48372
458.126	3.79365
458.332	4.29402
458.538	3.94796
458.744	3.97363
458.951	3.97323
459.157	5.46557
459.363	4.37579
459.569	4.1454
459.775	4.93961
459.981	3.67337
460.187	4.23045
460.393	4.89424
460.599	5.47497
460.805	4.74421
461.011	4.6615
461.217	5.55557
461.423	5.80838
461.629	4.66242
461.835	5.4616
462.041	4.7392
462.247	6.32502
462.453	4.72555
462.658	4.87566
462.864	5.65292
463.07	5.22672
463.276	5.26437
463.482	5.4059
463.688	6.19609
463.893	4.72242
464.099	4.68927
464.305	6.6497
464.511	4.55683
464.716	5.05373
464.922	5.59939
465.128	4.35449
465.333	6.71405
465.539	5.513
465.745	4.77946
465.95	5.43736
466.156	7.55935
466.362	6.16756
466.567	4.88674
466.773	4.61934
466.978	6.52037
467.184	4.24122
467.389	3.17487
467.595	5.63241
467.8	4.28313
468.006	6.36739
468.211	6.17693
468.417	4.29847
468.622	5.75191
468.828	6.01357
469.033	5.36045
469.239	7.89573
469.444	4.77125
469.649	6.11567
469.855	4.99784
470.06	5.37779
470.266	4.31882
470.471	5.71614
470.676	5.5566
470.881	3.79309
471.087	5.82257
471.292	6.75484
471.497	4.05194
471.703	5.07665
471.908	4.773
472.113	5.50168
472.318	5.99887
472.523	4.30652
472.729	5.59475
472.934	5.6895
473.139	4.89783
473.344	5.79711
473.549	6.35505
473.754	4.59812
473.959	7.04763
474.164	4.63371
474.369	5.22038
474.575	6.21626
474.78	5.31776
474.985	4.86803
475.19	3.79835
475.395	4.51149
475.6	5.15349
475.804	6.32525
476.009	5.15116
476.214	5.28567
476.419	4.74041
476.624	3.56455
476.829	4.44565
477.034	5.59932
477.239	4.28725
477.444	5.24246
477.648	5.4746
477.853	5.6411
478.058	4.71754
478.263	4.45897
478.468	3.9837
478.672	4.155
478.877	6.04273
479.082	6.68561
479.287	5.41036
479.491	5.08578
479.696	4.06095
479.901	5.91929
480.105	5.63623
480.31	4.45778
480.515	5.04625
480.719	6.95575
480.924	4.28814
481.128	3.84826
481.333	4.89877
481.538	4.96393
481.742	4.30861
481.947	4.8325
482.151	4.88212
482.356	4.36258
482.56	4.94316
482.765	5.16003
482.969	6.2649
483.174	7.17432
483.378	8.46564
483.582	8.41811
483.787	9.34607
483.991	9.47269
484.196	9.73351
484.4	9.4665
484.604	9.94795
484.809	8.72822
485.013	8.68184
485.217	7.77608
485.422	7.00042
485.626	6.41339
485.83	5.91565
486.034	5.61691
486.239	5.75607
486.443	5.65476
486.647	5.57498
486.851	6.2609
487.055	6.83043
487.26	6.32169
487.464	6.95021
487.668	6.3995
487.872	6.43571
488.076	7.13473
488.28	6.67949
488.484	6.1749
488.688	6.16064
488.892	6.1697
489.096	5.86479
489.3	5.18503
489.504	5.03371
489.708	5.40902
489.912	5.45902
490.116	5.33131
490.32	4.36673
490.524	4.95043
490.728	4.9274
490.932	4.94193
491.136	4.97939
491.34	6.01893
491.544	6.1751
491.748	5.83348
491.951	5.94442
492.155	5.66134
492.359	5.8103
492.563	4.92803
492.767	4.73385
492.97	4.81221
493.174	4.68712
493.378	4.96347
493.582	4.53864
493.785	5.20286
493.989	5.42151
494.193	5.36037
494.396	4.96977
494.6	5.86872
494.804	5.15639
495.007	4.76731
495.211	4.51037
495.414	4.9773
495.618	5.22515
495.822	5.92233
496.025	5.02025
496.229	5.64623
496.432	4.18516
496.636	4.8135
496.839	4.72991
497.043	6.22461
497.246	5.05915
497.45	4.58656
497.653	4.81695
497.856	5.07334
498.06	4.02887
498.263	4.75983
498.467	4.52412
498.67	5.89776
498.873	5.28993
499.077	4.74854
499.28	4.8113
499.483	5.45729
499.686	5.67779
499.89	5.54176
500.093	5.73662
500.296	4.55998
500.499	6.35704
500.703	5.15108
500.906	5.22559
501.109	6.88925
501.312	5.29487
501.515	5.13632
501.719	5.53056
501.922	6.54199
502.125	5.55023
502.328	5.0621
502.531	4.08907
502.734	5.28274
502.937	3.54131
503.14	5.17086
503.343	4.13998
503.546	4.86169
503.749	4.4465
503.952	5.71204
504.155	4.16743
504.358	5.64642
504.561	5.07879
504.764	4.05344
504.967	5.03808
505.17	5.12817
505.373	6.51548
505.576	5.18209
505.778	5.59934
505.981	4.71445
506.184	6.27938
506.387	3.84114
506.59	6.79318
506.793	6.01991
506.995	5.53483
507.198	3.50204
507.401	5.16272
507.604	5.4923
507.806	4.2102
508.009	4.39074
508.212	5.44973
508.414	4.48038
508.617	4.42224
508.82	4.85639
509.022	5.90089
509.225	5.12657
509.427	3.52692
509.63	6.01089
509.833	4.80728
510.035	4.84354
510.238	3.66401
510.44	5.84612
510.643	3.1845
510.845	6.9173
511.048	5.28077
511.25	4.66627
511.453	4.89102
511.655	5.33609
511.858	4.51728
512.06	5.73369
512.262	4.88667
512.465	5.56726
512.667	4.27652
512.869	4.13994
513.072	5.21782
513.274	5.77713
513.476	5.45508
513.679	5.72548
513.881	4.10256
514.083	6.52174
514.286	4.58412
514.488	4.63841
514.69	4.25247
514.892	3.92382
515.094	5.56827
515.297	4.53346
515.499	5.34146
515.701	4.46034
515.903	6.60711
516.105	6.48243
516.307	5.61792
516.509	3.35839
516.711	3.86991
516.913	5.03329
517.116	4.69222
517.318	4.41495
517.52	5.60722
517.722	5.1193
517.924	3.56902
518.126	5.0109
518.328	3.98864
518.529	4.82403
518.731	5.85941
518.933	4.19347
519.135	4.58219
519.337	5.42958
519.539	5.03191
519.741	3.53143
519.943	4.62211
520.145	4.64382
520.346	5.18106
520.548	4.55373
520.75	5.23639
520.952	4.62162
521.153	5.0008
521.355	5.4102
521.557	4.05189
521.759	5.16634
521.96	5.06171
522.162	4.15416
522.364	5.92668
522.565	4.30745
522.767	5.66284
522.969	6.12601
523.17	5.32424
523.372	5.39942
523.573	4.21271
523.775	4.72153
523.977	3.88844
524.178	6.21405
524.38	4.14299
524.581	5.33927
524.783	4.34396
524.984	5.08476
525.186	4.45334
525.387	4.92524
525.589	4.46014
525.79	4.19487
525.991	3.81563
526.193	4.70951
526.394	3.40675
526.596	4.60161
526.797	4.48242
526.998	4.05561
527.2	3.34375
527.401	4.58854
527.602	4.40069
527.803	5.74514
528.005	5.59875
528.206	6.26376
528.407	6.62651
528.608	6.41277
528.81	6.4954
529.011	6.01184
529.212	7.05082
529.413	6.31961
529.614	5.9912
529.815	6.06147
530.017	5.5147
530.218	4.9937
530.419	4.63784
530.62	4.97112
530.821	5.04293
531.022	3.99708
531.223	5.28952
531.424	5.18884
531.625	4.98768
531.826	4.78922
532.027	4.68382
532.228	5.31679
532.429	4.46496
532.63	4.1512
532.831	4.56151
533.032	4.58012
533.233	5.07013
533.433	4.85748
533.634	5.07532
533.835	4.47697
534.036	4.16801
534.237	4.5752
534.438	4.46439
534.638	4.19101
534.839	4.42007
535.04	5.23039
535.241	4.57409
535.441	5.99787
535.642	4.98687
535.843	3.95124
536.043	3.8984
536.244	4.15791
536.445	4.14284
536.645	5.18374
536.846	4.60619
537.047	5.44203
537.247	4.10822
537.448	4.59149
537.648	4.78033
537.849	4.81488
538.049	4.81685
538.25	5.66485
538.451	5.24114
538.651	4.38178
538.851	5.37119
539.052	5.99764
539.252	5.65108
539.453	4.88916
539.653	4.89563
539.854	4.85063
540.054	4.47344
540.254	5.24749
540.455	5.00269
540.655	3.96802
540.855	4.60915
541.056	5.20944
541.256	4.73286
541.456	5.71526
541.657	4.91147
541.857	5.86713
542.057	4.46827
542.257	4.3333
542.458	5.09981
542.658	5.3827
542.858	4.15458
543.058	5.73661
543.258	5.36382
543.458	4.13748
543.659	3.92634
543.859	5.53316
544.059	5.42401
544.259	4.77575
544.459	5.60521
544.659	4.53967
544.859	5.49169
545.059	4.63089
545.259	5.53639
545.459	5.11064
545.659	5.65213
545.859	5.05212
546.059	5.18161
546.259	4.28523
546.459	3.59234
546.659	4.04944
546.859	5.49353
547.059	5.2717
547.258	5.51894
547.458	5.4046
547.658	4.14311
547.858	4.36705
548.058	5.51033
548.258	5.24554
548.457	4.54944
548.657	8.13086
548.857	5.29119
549.057	6.33264
549.256	6.08967
549.456	5.53423
549.656	3.76935
549.855	7.7353
550.055	5.51306
550.255	7.79631
550.454	6.52579
550.654	7.00963
550.853	7.35732
551.053	7.00868
551.253	6.17968
551.452	6.46273
551.652	4.54936
551.851	3.95831
552.051	5.37829
552.25	5.25509
552.45	4.84351
552.649	5.38033
552.849	4.674
553.048	5.53948
553.248	6.21013
553.447	4.84841
553.646	6.70425
553.846	7.46059
554.045	6.98668
554.244	4.73293
554.444	8.03997
554.643	5.50163
554.842	7.69378
555.042	8.66264
555.241	5.59899
555.44	5.22596
555.64	6.48387
555.839	8.21061
556.038	6.986
556.237	5.61463
556.436	5.95912
556.636	6.71082
556.835	5.3678
557.034	8.22955
557.233	6.10273
557.432	4.92824
557.631	7.51014
557.83	6.08975
558.029	5.97678
558.228	6.06472
558.427	5.08101
558.626	6.87959
558.825	5.6088
559.024	6.76736
559.223	8.34428
559.422	6.34809
559.621	6.87318
559.82	3.51769
560.019	6.4647
560.218	5.95844
560.417	3.11814
560.616	5.77112
560.815	10.19267
561.014	4.61554
561.212	7.6057
561.411	6.58157
561.61	4.43537
561.809	6.12883
562.008	8.2963
562.206	6.15953
562.405	6.96802
562.604	6.25377
562.803	6.58493
563.001	6.2474
563.2	4.85218
563.399	6.93575
563.597	5.10672
563.796	6.59632
563.995	4.8933
564.193	7.18246
564.392	5.61348
564.59	9.05297
564.789	3.91303
564.988	5.91825
565.186	6.26419
565.385	5.81199
565.583	5.43095
565.782	5.76271
565.98	5.52744
566.179	5.82766
566.377	4.48544
566.575	5.05666
566.774	7.07553
566.972	6.93282
567.171	8.4015
567.369	7.50588
567.567	6.23427
567.766	6.62414
567.964	3.93842
568.162	6.98577
568.361	7.69779
568.559	6.36881
568.757	7.055
568.956	6.60831
569.154	6.22992
569.352	7.50203
569.55	6.33564
569.748	6.45457
569.947	5.36033
570.145	5.47732
570.343	4.91517
570.541	7.65796
570.739	4.64676
570.937	6.3767
571.135	6.57445
571.333	8.0815
571.532	7.81524
571.73	6.39496
571.928	7.20985
572.126	6.55697
572.324	5.61313
572.522	7.58091
572.72	9.13711
572.918	6.22186
573.116	6.56578
573.313	6.27114
573.511	6.11703
573.709	6.05596
573.907	6.8735
574.105	5.91779
574.303	4.331
574.501	4.5657
574.699	6.5104
574.896	6.5164
575.094	7.05635
575.292	4.88769
575.49	7.32882
575.688	6.07181
575.885	8.08686
576.083	8.59518
576.281	7.12498
576.478	6.06367
576.676	7.3941
576.874	5.3049
577.071	6.32986
577.269	9.59084
577.467	6.90246
577.664	7.11501
577.862	7.94828
578.059	5.98376
578.257	8.18739
578.455	6.93012
578.652	7.19577
578.85	4.90057
579.047	7.2602
579.245	7.16112
579.442	7.22232
579.64	7.21118
579.837	4.68578
580.034	10.53535
580.232	6.64752
580.429	5.97306
580.627	8.10353
580.824	9.20893
581.021	8.07956
581.219	6.7934
581.416	6.14185
581.613	9.4996
581.811	9.22952
582.008	6.29691
582.205	8.62321
582.402	7.7107
582.6	10.49877
582.797	7.9357
582.994	8.31049
583.191	8.55921
583.388	7.80561
583.586	8.76259
583.783	9.40066
583.98	6.43309
584.177	7.95742
584.374	3.66837
584.571	7.52953
584.768	7.67988
584.965	7.17595
585.162	8.74319
585.359	10.43774
585.556	7.51579
585.753	8.48349
585.95	5.9572
586.147	6.80107
586.344	8.69599
586.541	7.45035
586.738	6.01186
586.935	7.67696
587.132	6.72073
587.329	9.56615
587.526	7.68345
587.722	15.13155
587.919	5.46559
588.116	8.21354
588.313	10.21692
588.51	10.95502
588.706	7.40386
588.903	8.53428
589.1	8.95553
589.297	12.02771
589.493	7.37622
589.69	8.45949
589.887	6.81277
590.083	5.9505
590.28	6.50095
590.477	9.28594
590.673	8.81768
590.87	9.93212
591.067	7.16668
591.263	8.86143
591.46	8.77565
591.656	7.88226
591.853	10.10701
592.049	6.4666
592.246	7.35029
592.442	9.93304
592.639	8.96663
592.835	6.04464
593.032	8.71566
593.228	5.89655
593.425	5.85751
593.621	5.42286
593.817	7.71823
594.014	6.78643
594.21	7.80594
594.406	9.23105
594.603	8.45375
594.799	6.95643
594.995	4.14799
595.192	9.40014
595.388	6.78952
595.584	6.5852
595.78	5.06974
595.977	10.29818
596.173	9.77081
596.369	6.89336
596.565	5.77869
596.761	5.13126
596.957	8.72993
597.154	5.88726
597.35	6.5401
597.546	6.01244
597.742	7.94329
597.938	7.90911
598.134	6.00583
598.33	7.77193
598.526	10.07482
598.722	8.7476
598.918	10.7104
599.114	8.82621
599.31	6.66246
599.506	8.25718
599.702	6.94468
599.898	8.73326
600.094	10.07702
600.29	9.90448
600.485	9.53317
600.681	7.58991
600.877	11.23128
601.073	8.73892
601.269	11.35929
601.465	10.57287
601.66	6.8655
601.856	5.15455
602.052	10.66498
602.248	7.32044
602.443	4.77011
602.639	5.71142
602.835	6.14593
603.03	6.45018
603.226	8.77209
603.422	5.96044
603.617	6.70062
603.813	6.40724
604.009	6.35305
604.204	8.66517
604.4	4.63154
604.595	8.35514
604.791	5.64134
604.986	7.4145
605.182	6.007
605.377	6.51163
605.573	6.46698
605.768	7.51183
605.964	8.38736
606.159	8.62206
606.355	9.90415
606.55	7.66432
606.746	9.58205
606.941	8.06138
607.136	11.72044
607.332	13.18546
607.527	6.28099
607.722	8.66532
607.918	8.23274
608.113	6.55073
608.308	8.95674
608.503	8.57885
608.699	8.40564
608.894	8.38495
609.089	6.24728
609.284	7.79352
609.479	6.51402
609.675	8.42983
609.87	6.87208
610.065	8.57724
610.26	9.19072
610.455	9.08149
610.65	7.62193
610.845	8.43354
611.04	9.538
611.235	8.04652
611.43	7.67063
611.625	6.0035
611.82	10.87609
612.015	6.93047
612.21	11.16732
612.405	6.032
612.6	12.2999
612.795	11.46042
612.99	10.31969
613.185	6.92448
613.38	7.30437
613.575	9.49012
613.77	14.07864
613.965	6.04361
614.159	7.63337
614.354	11.75326
614.549	11.19545
614.744	10.30064
614.938	7.37835
615.133	6.56643
615.328	11.40872
615.523	11.67505
615.717	15.0881
615.912	8.03462
616.107	9.33563
616.301	8.57792
616.496	7.93844
616.691	12.81103
616.885	10.52232
617.08	14.1734
617.274	11.67636
617.469	13.81055
617.664	10.92936
617.858	8.1017
618.053	10.13169
618.247	8.75058
618.442	5.34362
618.636	11.93994
618.831	8.31714
619.025	8.36638
619.219	14.64234
619.414	2.81174
619.608	9.77908
619.803	7.90991
619.997	13.81779
620.191	12.137
620.386	10.44193
620.58	9.98781
620.774	5.90572
620.969	6.57299
621.163	10.2644
621.357	6.78437
621.551	8.83109
621.746	9.93296
621.94	9.77532
622.134	17.82255
622.328	14.10084
622.522	6.53086
622.716	12.11086
622.911	11.61609
623.105	11.67043
623.299	10.71148
623.493	16.76231
623.687	8.19417
623.881	9.00709
624.075	11.39957
624.269	12.04292
624.463	6.11767
624.657	6.46402
624.851	11.04899
625.045	11.43036
625.239	11.60148
625.433	7.86216
625.627	12.53913
625.821	8.3072
626.015	7.56733
626.209	9.05979
626.403	6.22468
626.596	9.89536
626.79	10.65714
626.984	6.4618
627.178	9.89207
627.372	10.00924
627.565	10.8216
627.759	6.0322
627.953	6.6645
628.147	10.01432
628.34	10.74165
628.534	14.00149
628.728	8.9917
628.921	12.03263
629.115	11.49571
629.309	11.68509
629.502	12.03788
629.696	10.58275
629.89	9.75521
630.083	10.336
630.277	11.30756
630.47	14.17553
630.664	9.59793
630.857	7.20282
631.051	11.87153
631.244	13.12471
631.438	12.51126
631.631	9.01641
631.825	12.97569
632.018	11.83742
632.212	14.48712
632.405	13.08573
632.598	8.96024
632.792	11.07827
632.985	4.951
633.178	9.51783
633.372	10.23624
633.565	10.43509
633.758	13.4265
633.952	8.12483
634.145	8.49406
634.338	10.31179
634.531	9.14562
634.724	8.90761
634.918	10.71726
635.111	9.91675
635.304	9.3309
635.497	15.64649
635.69	11.13404
635.883	13.14682
636.077	7.72536
636.27	12.01865
636.463	10.96826
636.656	12.0974
636.849	9.6337
637.042	11.6186
637.235	14.87527
637.428	12.68329
637.621	11.77602
637.814	14.61929
638.007	14.88555
638.2	15.74846
638.393	16.88127
638.586	8.34091
638.778	9.95506
638.971	11.43951
639.164	16.10462
639.357	13.06097
639.55	15.20218
639.743	13.30969
639.935	14.12072
640.128	16.7362
640.321	13.64961
640.514	12.09394
640.707	19.49965
640.899	14.22261
641.092	8.03467
641.285	32.40164
641.477	6.52093
641.67	18.5313
641.863	15.31736
642.055	12.83925
642.248	12.4304
642.441	11.50443
642.633	13.39148
642.826	15.59283
643.018	16.16319
643.211	17.62873
643.403	16.89639
643.596	18.92094
643.788	17.95138
643.981	11.77617
644.173	14.82452
644.366	12.18276
644.558	7.99792
644.751	14.91516
644.943	8.83447
645.135	18.2381
645.328	18.13452
645.52	15.39975
645.712	15.70704
645.905	23.31958
646.097	10.04176
646.289	14.15148
646.482	18.51172
646.674	11.11684
646.866	16.39463
647.058	14.8488
647.251	10.29501
647.443	11.42029
647.635	12.81788
647.827	9.92298
648.019	10.31948
648.211	13.48825
648.404	13.64366
648.596	17.67793
648.788	14.15834
648.98	14.29923
649.172	14.85094
649.364	14.50229
649.556	8.06342
649.748	21.21109
649.94	10.37121
650.132	15.03943
650.324	10.82557
650.516	11.17863
650.708	17.03044
650.9	9.15726
651.092	11.98232
651.284	8.27988
651.476	10.10169
651.667	14.73505
651.859	16.984
652.051	13.23267
652.243	13.73205
652.435	12.09318
652.627	14.71196
652.818	15.11964
653.01	8.4897
653.202	11.1432
653.394	12.63092
653.585	15.16339
653.777	28.28769
653.969	17.84624
654.16	17.6506
654.352	10.86908
654.544	13.48226
654.735	17.71717
654.927	14.57854
655.118	19.75336
655.31	16.77087
655.502	16.64359
655.693	12.31692
655.885	15.93084
656.076	19.44633
656.268	14.21476
656.459	18.2906
656.651	18.35209
656.842	12.12314
657.034	10.86083
657.225	16.31657
657.416	18.60341
657.608	18.74565
657.799	13.32488
657.99	16.67064
658.182	10.92126
658.373	11.16756
658.564	15.36658
658.756	12.99937
658.947	12.07704
659.138	9.73486
659.33	10.90433
659.521	10.00315
659.712	12.01852
659.903	11.70243
660.094	10.82355
660.286	8.06376
660.477	19.12175
660.668	15.01094
660.859	13.45458
661.05	9.53627
661.241	15.57719
661.432	16.292
661.623	13.23176
661.814	11.885
662.006	8.19736
662.197	15.96617
662.388	18.71496
662.579	15.59163
662.77	20.20274
662.96	24.71769
663.151	18.3691
663.342	8.85526
663.533	16.74195
663.724	14.95566
663.915	21.523
664.106	15.17395
664.297	22.56053
664.488	18.48085
664.678	14.40153
664.869	18.28331
665.06	19.45099
665.251	16.66044
665.442	18.18359
665.632	12.24117
665.823	23.13063
666.014	5.2676
666.204	18.28218
666.395	21.31278
666.586	27.34668
666.776	19.46851
666.967	22.72958
667.158	16.75434
667.348	22.45846
667.539	12.15418
667.729	19.24753
667.92	13.40988
668.111	19.78552
668.301	18.63647
668.492	14.87225
668.682	15.35959
668.873	14.54687
669.063	11.34001
669.253	16.09765
669.444	19.09348
669.634	15.68385
669.825	23.43865
670.015	19.96214
670.206	13.47946
670.396	24.8562
670.586	15.79826
670.777	18.02849
670.967	8.35345
671.157	16.34571
671.347	14.41256
671.538	22.70375
671.728	18.44116
671.918	24.40395
672.108	21.52172
672.299	17.19189
672.489	18.37214
672.679	14.78246
672.869	19.75744
673.059	23.98149
673.249	20.14671
673.44	13.63704
673.63	16.59018
673.82	21.11134
674.01	13.36226
674.2	19.33351
674.39	30.56797
674.58	19.79185
674.77	18.71135
674.96	17.25755
675.15	35.20786
675.34	22.04441
675.53	17.76616
675.72	15.87244
675.91	11.84489
676.099	25.4426
676.289	26.94287
676.479	22.37411
676.669	16.31218
676.859	20.70723
677.049	13.15311
677.238	17.81081
677.428	25.81044
677.618	18.65164
677.808	21.8927
677.997	19.59804
678.187	12.59479
678.377	17.28989
678.567	16.00105
678.756	15.66233
678.946	16.40525
679.136	11.44242
679.325	13.20429
679.515	12.57272
679.704	10.86429
679.894	18.15052
680.084	16.80736
680.273	20.69961
680.463	12.28828
680.652	12.55934
680.842	15.43905
681.031	19.177
681.221	12.62879
681.41	18.49416
681.6	15.65171
681.789	19.52775
681.978	22.20214
682.168	18.08831
682.357	19.3127
682.547	20.564
682.736	18.1072
682.925	23.37747
683.115	22.24808
683.304	21.65339
683.493	20.13338
683.682	20.71
683.872	19.57018
684.061	24.87124
684.25	22.39274
684.439	28.38809
684.629	21.73368
684.818	35.32902
685.007	18.86092
685.196	18.03172
685.385	26.48573
685.574	21.6818
685.763	21.2064
685.952	20.33892
686.142	14.40624
686.331	26.21992
686.52	12.04724
686.709	26.736
686.898	27.08036
687.087	23.18722
687.276	27.77988
687.465	24.15388
687.654	18.61194
687.842	27.74005
688.031	13.46613
688.22	25.66329
688.409	20.25883
688.598	20.94874
688.787	32.52719
688.976	20.94575
689.165	29.29406
689.353	18.45048
689.542	23.05776
689.731	24.30218
689.92	30.0275
690.108	25.65329
690.297	18.85418
690.486	21.23775
690.675	24.76818
690.863	30.42034
691.052	30.21888
691.241	23.86076
691.429	22.69718
691.618	29.09182
691.806	16.6398
691.995	20.75268
692.184	21.51694
692.372	19.97015
692.561	21.97839
692.749	22.03958
692.938	35.2533
693.126	25.30426
693.315	20.25646
693.503	25.88324
693.692	26.04467
693.88	28.4761
694.068	34.92719
694.257	22.49047
694.445	24.70469
694.634	12.42886
694.822	29.40576
695.01	30.69096
695.199	30.31046
695.387	32.19383
695.575	30.38604
695.763	23.78095
695.952	21.00262
696.14	14.93827
696.328	20.10381
696.516	23.4307
696.705	23.6639
696.893	24.25726
697.081	13.05019
697.269	25.09445
697.457	16.09261
697.645	14.61161
697.833	24.92421
698.021	16.05175
698.21	16.2823
698.398	18.3821
698.586	14.04874
698.774	12.79268
698.962	17.18091
699.15	13.8159
699.338	11.53475
699.526	20.48771
699.714	15.64785
699.901	16.53177
700.089	24.06853
700.277	15.95563
700.465	19.59708
700.653	25.46532
700.841	24.35511
701.029	17.07491
701.217	27.62253
701.404	23.06776
701.592	30.39476
701.78	33.71874
701.968	19.84339
702.155	21.48569
702.343	16.6359
702.531	31.12647
702.718	26.43638
702.906	22.55921
703.094	21.31189
703.281	31.49477
703.469	24.07486
703.657	32.34454
703.844	45.87408
704.032	35.08903
704.219	21.82274
704.407	27.41554
704.595	33.59182
704.782	27.50459
704.97	23.08842
705.157	23.249
705.345	35.95068
705.532	42.03718
705.719	27.77779
705.907	36.18098
706.094	26.72126
706.282	37.85399
706.469	24.24532
706.656	26.75559
706.844	25.43054
707.031	32.4829
707.218	28.15372
707.406	37.19414
707.593	31.09715
707.78	30.36545
707.968	25.59073
708.155	20.9593
708.342	31.38853
708.529	30.92626
708.716	28.02728
708.904	38.68736
709.091	31.76321
709.278	20.1532
709.465	38.94782
709.652	39.31517
709.839	37.07842
710.026	29.43768
710.213	17.25441
710.4	29.48588
710.587	33.21347
710.774	33.61036
710.961	34.94352
711.148	28.0088
711.335	35.45241
711.522	27.55402
711.709	30.31034
711.896	43.26389
712.083	35.84716
712.27	21.24491
712.457	29.69008
712.644	18.52257
712.831	43.92464
713.017	29.97586
713.204	33.47093
713.391	24.25677
713.578	37.98749
713.765	38.59453
713.951	32.82487
714.138	51.82298
714.325	35.30168
714.512	29.29488
714.698	24.3698
714.885	41.59524
715.072	31.88891
715.258	30.63576
715.445	26.26114
715.631	38.9602
715.818	12.70506
716.005	24.96169
716.191	33.34113
716.378	27.50961
716.564	36.82771
716.751	24.2054
716.937	25.98958
717.124	39.27399
717.31	25.42178
717.497	42.37165
717.683	25.39777
717.869	50.24115
718.056	28.18318
718.242	35.43945
718.429	32.49793
718.615	23.41702
718.801	32.41349
718.988	39.93225
719.174	36.52277
719.36	31.07179
719.547	44.30599
719.733	36.38775
719.919	36.28746
720.105	39.94366
720.291	32.42063
720.478	36.36678
720.664	32.77976
720.85	30.87657
721.036	58.18699
721.222	47.3969
721.408	34.3875
721.595	52.47295
721.781	50.53111
721.967	44.43299
722.153	49.4516
722.339	40.18486
722.525	39.77756
722.711	27.18959
722.897	24.25191
723.083	32.56716
723.269	46.11969
723.455	58.22823
723.641	62.77318
723.827	38.70455
724.012	41.26754
724.198	33.24835
724.384	47.73162
724.57	40.56079
724.756	23.95428
724.942	20.29446
725.127	44.99587
725.313	50.51466
725.499	50.66418
725.685	53.69181
725.87	41.31827
726.056	28.62667
726.242	50.52103
726.428	24.00166
726.613	44.61622
726.799	35.41432
726.985	27.91494
727.17	24.15398
727.356	51.58616
727.541	29.13742
727.727	33.41682
727.913	44.22878
728.098	32.0058
728.284	44.0114
728.469	24.68218
728.655	27.41206
728.84	44.04093
729.026	44.18012
729.211	45.41705
729.397	40.52126
729.582	43.20251
729.767	35.64735
729.953	40.02928
730.138	47.24628
730.323	18.43171
730.509	27.27941
730.694	52.52095
730.879	41.02514
731.065	39.36814
731.25	60.13909
731.435	42.95516
731.621	24.15224
731.806	32.12326
731.991	40.80048
732.176	26.73627
732.361	48.47011
732.547	39.2956
732.732	22.21851
732.917	59.02319
733.102	26.03857
733.287	31.02905
733.472	36.98279
733.657	39.40498
733.842	24.29913
734.027	34.71326
734.212	36.93263
734.397	31.14862
734.582	38.50384
734.767	46.69934
734.952	51.89395
735.137	15.52176
735.322	53.83828
735.507	42.68546
735.692	42.28547
735.877	63.2541
736.062	57.79638
736.247	42.88224
736.431	41.63132
736.616	54.60092
736.801	43.62018
736.986	39.17657
737.171	33.6362
737.355	30.11151
737.54	52.91365
737.725	41.37968
737.909	71.64628
738.094	35.17403
738.279	50.17855
738.463	38.24018
738.648	48.73396
738.833	44.62465
739.017	61.12774
739.202	38.3131
739.386	39.73084
739.571	24.86757
739.756	48.41621
739.94	41.27538
740.125	51.22825
740.309	32.65468
740.494	49.46266
740.678	42.78336
740.863	45.98344
741.047	43.02162
741.231	55.26269
741.416	32.2751
741.6	60.34927
741.785	34.60073
741.969	52.8107
742.153	56.6132
742.338	20.17748
742.522	42.32543
742.706	53.52984
742.89	29.84666
743.075	45.25016
743.259	59.74648
743.443	54.42962
743.627	57.79084
743.812	73.85273
743.996	27.10559
744.18	41.82463
744.364	38.89284
744.548	77.8735
744.732	43.08066
744.916	54.90599
745.1	51.12156
745.285	41.97235
745.469	52.65102
745.653	70.37091
745.837	27.90613
746.021	76.62392
746.205	61.73037
746.389	47.30745
746.573	42.18041
746.757	65.80467
746.94	39.70988
747.124	58.90134
747.308	32.30973
747.492	63.0797
747.676	38.92341
747.86	76.52286
748.044	40.78907
748.227	26.17914
748.411	93.65605
748.595	49.93645
748.779	35.27741
748.963	51.96192
749.146	47.6303
749.33	37.48186
749.514	32.78849
749.697	60.7678
749.881	36.85218
750.065	34.25096
750.248	48.89429
750.432	77.86983
750.616	46.8408
750.799	30.83207
750.983	73.58897
751.166	84.93832
751.35	29.81823
751.533	56.80556
751.717	63.27572
751.9	67.96072
752.084	41.4242
752.267	34.84764
752.451	38.01278
752.634	46.66858
752.818	56.37961
753.001	58.42847
753.184	61.91332
753.368	52.50504
753.551	8.93983
753.734	36.47332
753.918	75.16353
754.101	36.76953
754.284	59.1506
754.467	42.57741
754.651	37.46369
754.834	39.09478
755.017	64.73239
755.2	60.70444
755.384	32.79268
755.567	56.96188
755.75	63.31527
755.933	44.96501
756.116	51.84932
756.299	40.72771
756.482	36.75402
756.665	55.55986
756.848	49.21134
757.032	57.04393
757.215	31.20634
757.398	37.40054
757.581	39.05638
757.764	88.04614
757.947	48.68109
758.129	65.08795
758.312	14.1426
758.495	46.37705
758.678	46.24698
758.861	46.44854
759.044	76.92237
759.227	36.81187
759.41	36.32047
759.592	56.72516
759.775	48.18626
759.958	60.76192
760.141	29.88094
760.324	81.39295
760.506	69.28588
760.689	62.60489
760.872	86.70323
761.054	56.36681
761.237	47.16466
761.42	54.29387
761.602	62.52718
761.785	53.13036
761.968	62.90595
762.15	76.86401
762.333	45.01532
762.515	55.51955
762.698	40.60893
762.88	55.90084
763.063	50.31726
763.245	55.26216
763.428	33.1
763.61	37.09865
763.793	27.93468
763.975	45.24749
764.158	36.88999
764.34	35.39415
764.522	30.22423
764.705	37.67192
764.887	57.44987
765.069	24.59881
765.252	54.08948
765.434	56.1975
765.616	46.39198
765.799	37.98222
765.981	57.48903
766.163	34.86808
766.345	62.42044
766.528	40.38215
766.71	18.24367
766.892	53.45681
767.074	66.55533
767.256	44.70507
767.438	78.12167
767.62	52.9263
767.802	86.87512
767.985	61.21449
768.167	84.12591
768.349	42.48958
768.531	61.81492
768.713	58.14907
768.895	68.17237
769.077	57.68149
769.259	93.53177
769.441	140.34999
769.623	70.8922
769.804	81.96019
769.986	82.25532
770.168	100.07988
770.35	119.34024
770.532	83.9937
770.714	93.38275
770.896	100.81005
771.077	42.91526
771.259	97.56316
771.441	82.72526
771.623	105.46589
771.804	130.01481
771.986	40.92237
772.168	63.56496
772.35	105.23278
772.531	146.97773
772.713	77.48221
772.894	111.8035
773.076	75.55795
773.258	66.44011
773.439	107.1175
773.621	122.17106
773.802	52.03891
773.984	67.23539
774.166	87.2615
774.347	114.12773
774.529	107.22567
774.71	35.75603
774.891	72.81557
775.073	68.84824
775.254	116.45317
775.436	68.21548
775.617	131.14687
775.799	67.13254
775.98	122.6908
776.161	126.65987
776.343	125.50443
776.524	78.83449
776.705	69.61047
776.886	36.91102
777.068	90.37645
777.249	158.94711
777.43	142.46372
777.611	52.7358
777.793	73.76822
777.974	122.9488
778.155	68.5979
778.336	57.77494
778.517	143.11547
778.698	60.69304
778.879	33.77271
779.061	21.04612
779.242	93.01245
779.423	92.04752
779.604	67.2467
779.785	76.32394
779.966	87.10596
780.147	103.76846
780.328	111.91427
780.509	157.50394
780.69	103.38319
780.871	60.56224
781.051	45.691
781.232	86.42115
781.413	85.0042
781.594	72.57171
781.775	67.13493
781.956	65.8065
782.137	36.44449
782.317	65.0837
782.498	91.11075
782.679	82.35493
782.86	85.4546
783.04	65.12542
783.221	94.23545
783.402	142.09517
783.583	84.02864
783.763	103.82163
783.944	70.75273
784.124	46.20507
784.305	134.41723
784.486	98.69491
784.666	79.28157
784.847	41.72661
785.027	161.33858
785.208	60.7833
785.388	61.93801
785.569	65.6121
785.749	73.3244
785.93	68.251
786.11	43.79972
786.291	92.31458
786.471	87.89135
786.652	103.80876
786.832	80.92968
787.012	91.76613
787.193	51.53086
787.373	85.27678
787.553	70.87827
787.734	86.28688
787.914	69.03605
788.094	95.94523
788.275	90.27443
788.455	69.42032
788.635	47.78713
788.815	85.70685
788.995	52.71758
789.176	45.6577
789.356	59.75562
789.536	71.3251
789.716	93.88261
789.896	61.71658
790.076	68.91791
790.256	83.12473
790.436	26.47421
790.616	60.56759
790.796	83.3255
790.976	70.29821
791.156	61.92013
791.336	101.77825
791.516	92.39604
791.696	70.58103
791.876	43.13436
792.056	83.73777
792.236	106.06825
792.416	103.98227
792.596	92.03319
792.776	92.46981
792.956	96.07234
793.135	125.71454
793.315	54.04735
793.495	115.46079
793.675	96.04334
793.854	105.61146
794.034	105.57337
794.214	50.56396
794.394	108.33176
794.573	120.23495
794.753	82.58223
794.933	61.09672
795.112	89.94431
795.292	105.60101
795.472	135.78742
795.651	49.25863
795.831	80.0761
796.01	72.83781
796.19	73.12282
796.369	78.0781
796.549	94.31391
796.728	76.35924
796.908	46.99075
797.087	53.26543
797.267	72.77555
797.446	49.9955
797.626	97.04782
797.805	94.1604
797.984	57.88551
798.164	95.72048
798.343	59.76321
798.522	87.43941
798.702	79.37467
798.881	50.52627
799.06	73.5822
799.239	36.00468
799.419	55.82796
799.598	123.91655
799.777	93.68564
799.956	114.05276
800.136	68.4832
800.315	59.37712
800.494	93.76604
800.673	109.88083
800.852	99.1862
801.031	105.05855
801.21	97.29957
801.389	69.93676
801.568	82.82682
801.747	139.95447
801.926	80.36128
802.105	132.54261
802.284	66.54698
802.463	124.74012
802.642	92.2832
802.821	89.85043
803	117.71644
803.179	107.14756
803.358	116.14418
803.537	65.14603
803.716	85.49047
803.895	62.87919
804.073	76.73317
804.252	64.64927
804.431	94.45796
804.61	79.17879
804.789	119.34075
804.967	68.00197
805.146	63.28454
805.325	143.88147
805.503	93.84727
805.682	43.36616
805.861	164.07051
806.039	117.86121
806.218	67.46966
806.397	88.9888
806.575	84.58249
806.754	90.56587
806.932	55.85815
807.111	133.63889
807.289	106.26041
807.468	85.95826
807.646	111.84856
807.825	95.23082
808.003	87.17122
808.182	111.19765
808.36	88.94788
808.539	63.53786
808.717	137.2641
808.895	62.21622
809.074	90.77174
809.252	84.1254
809.43	105.65878
809.609	116.09307
809.787	147.07259
809.965	76.09746
810.144	86.45332
810.322	78.16038
810.5	101.70599
810.678	78.02248
810.856	154.37195
811.035	117.76832
811.213	107.70231
811.391	127.43973
811.569	89.69136
811.747	195.60873
811.925	122.42482
812.103	65.56064
812.281	77.68832
812.459	142.24855
812.637	145.14128
812.816	121.20019
812.994	149.22502
813.171	124.29266
813.349	110.24296
813.527	131.08743
813.705	137.80776
813.883	174.02544
814.061	123.86732
814.239	154.55559
814.417	170.8475
814.595	102.93679
814.773	105.83232
814.95	94.4459
815.128	106.17674
815.306	76.74812
815.484	90.54329
815.662	65.07833
815.839	60.81421
816.017	69.15063
816.195	135.60249
816.372	84.95983
816.55	118.00282
816.728	142.62976
816.905	82.2343
817.083	151.02556
817.261	87.09661
817.438	167.89831
817.616	160.89805
817.793	76.61903
817.971	118.46098
818.148	122.08334
818.326	139.769
818.503	101.42178
818.681	137.77593
818.858	78.49652
819.036	92.09219
819.213	101.46865
819.391	70.68815
819.568	66.17726
819.745	63.70769
819.923	112.7834
820.1	74.28292
820.277	63.85441
820.455	76.08482
820.632	77.30515
820.809	78.83007
820.986	49.21345
821.164	40.43388
821.341	34.88854
821.518	48.04434
821.695	33.02148
821.872	30.79345
822.05	25.23034
822.227	18.3145
822.404	19.02264
822.581	21.92173
822.758	18.07957
822.935	18.20952
823.112	21.55678
823.289	16.10261
823.466	21.59304
823.643	19.47964
823.82	24.7559
823.997	22.70685
824.174	27.70606
824.351	37.94955
824.528	37.60628
824.705	33.34364
824.882	39.48171
825.059	53.04019
825.236	34.14935
825.412	37.9798
825.589	50.09292
825.766	70.05163
825.943	44.61566
826.12	52.76336
826.296	33.41754
826.473	43.23447
826.65	45.58826
826.827	56.49958
827.003	35.64756
827.18	39.25303
827.357	44.79921
827.533	39.3129
827.71	19.65727
827.887	32.80308
828.063	38.19702
828.24	32.88323
828.416	46.10592
828.593	35.95062
828.769	52.94307
828.946	61.6379
829.122	63.20025
829.299	59.25061
829.475	35.46165
829.652	61.33106
829.828	108.32417
830.005	66.01665
830.181	97.27123
830.357	66.7405
830.534	99.85095
830.71	74.61747
830.886	97.97048
831.063	93.59235
831.239	125.17956
831.415	54.84828
831.592	130.21576
831.768	80.02634
831.944	63.45612
832.12	132.48174
832.296	120.3313
832.473	106.97264
832.649	71.54498
832.825	97.06973
833.001	58.059
833.177	89.28478
833.353	78.9821
833.529	42.71678
833.705	60.41345
833.881	42.03341
834.058	42.17575
834.234	43.37612
834.41	44.29098
834.586	33.97878
834.761	42.7413
834.937	47.33306
835.113	48.42929
835.289	42.92472
835.465	53.71587
835.641	46.24804
835.817	54.00935
835.993	99.87627
836.169	48.47578
836.344	74.85852
836.52	88.27279
836.696	86.31314
836.872	64.17722
837.048	181.9735
837.223	69.27071
837.399	160.37243
837.575	118.42549
837.75	114.20311
837.926	152.15984
838.102	265.71161
838.277	192.3531
838.453	257.13215
838.628	239.66113
838.804	100.07218
838.98	241.56914
839.155	116.22912
839.331	158.07923
839.506	114.99974
839.682	110.86176
839.857	146.2617
840.033	172.84377
840.208	78.66405
840.384	39.71108
840.559	81.34992
840.734	126.70077
840.91	187.90525
841.085	111.97942
841.26	106.46694
841.436	95.64174
841.611	95.04639
841.786	140.14527
841.962	195.49136
842.137	115.76565
842.312	71.54427
842.487	105.70372
842.663	78.67192
842.838	109.00467
843.013	387.41082
843.188	188.53045
843.363	136.23301
843.538	342.71031
843.714	322.00994
843.889	327.45722
844.064	361.72925
844.239	296.61025
844.414	392.94791
844.589	235.23044
844.764	485.97322
844.939	428.52746
845.114	530.45725
845.289	533.60159
845.464	548.46379
845.639	420.27815
845.814	182.64435
845.989	249.6334
846.163	278.81297
846.338	314.07328
846.513	491.3157
846.688	293.56125
846.863	274.42235
847.038	239.55642
847.212	314.72693
847.387	315.68323
847.562	304.25111
847.737	412.41791
847.911	141.24963
848.086	177.43405
848.261	601.19286
848.435	247.45552
848.61	437.48037
848.785	179.66145
848.959	428.33282
849.134	593.36655
849.308	729.77312
849.483	333.99253
849.658	530.86849
849.832	238.30332
850.007	193.62234
850.181	979.97769
850.356	239.22948
850.53	761.38034
850.705	180.16354
850.879	120.40904
851.053	266.58358
851.228	252.0147
851.402	387.89371
851.577	462.54494
851.751	691.42763
851.925	307.07852
852.099	152.51097
852.274	186.57808
852.448	276.45237
852.622	447.04821
852.797	284.11889
852.971	313.84243
853.145	311.93569
853.319	1060.73414
853.493	472.72418
853.668	245.4328
853.842	712.79018
854.016	518.33993
854.19	659.41613
854.364	321.84066
854.538	370.02024
854.712	556.22622
854.886	288.52908
855.06	235.7086
855.234	101.81199
855.408	601.71877
855.582	582.0147
855.756	515.07071
855.93	639.28884
856.104	329.20172
856.278	496.19546
856.452	307.29101
856.626	405.45223
856.8	940.9572
856.973	400.63425
857.147	385.29255
857.321	425.58616
857.495	533.22775
857.669	342.29274
857.842	269.61417
858.016	502.56473
858.19	194.22653
858.364	1283.26168
858.537	280.91655
858.711	329.34359
858.885	278.04591
859.058	266.16603
859.232	133.72022
859.405	155.81304
859.579	476.65892
859.753	404.80762
859.926	257.1582
860.1	131.73346
860.273	308.45989
860.447	563.01952
860.62	302.04466
860.794	727.69272
860.967	332.0883
861.141	629.20125
861.314	1024.2822
861.487	437.47297
861.661	617.74987
861.834	666.58998
862.008	479.90087
862.181	363.92264
862.354	358.66817
862.528	385.71351
862.701	302.7777
862.874	158.26614
863.047	276.71653
863.221	283.48725
863.394	144.49448
863.567	555.5195
863.74	92.36409
863.913	463.20391
864.087	444.63445
864.26	553.25905
864.433	292.90977
864.606	893.63566
864.779	297.41193
864.952	136.3272
865.125	249.76432
865.298	302.48635
865.471	308.21841
865.644	791.33099
865.817	506.28653
865.99	523.21357
866.163	696.32486
866.336	275.03403
866.509	256.66966
866.682	275.83333
866.855	588.65447
867.028	165.64684
867.2	428.90033
867.373	108.84083
867.546	327.99987
867.719	805.31035
867.892	443.17473
868.064	251.84312
868.237	363.7747
868.41	365.9455
868.583	174.85508
868.755	216.35673
868.928	283.96086
869.101	883.7806
869.273	531.27663
869.446	408.87368
869.619	635.56189
869.791	322.33999
869.964	520.59374
870.136	495.63292
870.309	404.8576
870.481	325.97851
870.654	164.59891
870.826	405.51314
870.999	257.15616
871.171	399.98192
871.344	240.8152
871.516	312.24871
871.689	205.84016
871.861	416.51794
872.033	215.69311
872.206	258.72906
872.378	469.13988
872.55	286.41379
872.723	182.44065
872.895	301.51645
873.067	505.6478
873.24	513.70738
873.412	253.12551
873.584	285.46695
873.756	268.18011
873.928	322.8541
874.101	368.79674
874.273	412.77321
874.445	130.93856
874.617	160.68377
874.789	319.61379
874.961	276.50226
875.133	385.45274
875.305	314.38836
875.477	199.84153
875.649	144.04651
875.821	177.51235
875.993	583.25618
876.165	192.29504
876.337	337.14944
876.509	293.3485
876.681	322.61375
876.853	343.24951
877.025	371.80688
877.197	209.84804
877.369	189.53828
877.541	436.21873
877.712	108.77603
877.884	189.19002
878.056	365.05459
878.228	193.12524
878.4	387.54229
878.571	189.2057
878.743	124.94141
878.915	310.20645
879.086	186.14748
879.258	220.36083
879.43	195.67267
879.601	179.1691
879.773	188.16415
879.945	41.11412
880.116	67.36084
880.288	42.63674
880.459	45.5864
880.631	33.00184
880.802	40.97033
880.974	37.593
881.145	24.66756
881.317	33.30596
881.488	23.0868
881.66	26.27817
881.831	23.53775
882.002	33.63633
882.174	22.43792
882.345	31.41878
882.517	14.86457
882.688	37.90383
882.859	29.90833
883.03	49.85051
883.202	48.25858
883.373	40.81074
883.544	40.90859
883.715	69.26749
883.887	61.2872
884.058	51.69412
884.229	77.62101
884.4	76.00723
884.571	92.78194
884.742	78.57787
884.914	84.87849
885.085	133.16616
885.256	181.7188
885.427	153.58983
885.598	156.38867
885.769	175.51615
885.94	174.32149
886.111	111.55155
886.282	221.08736
886.453	163.82137
886.624	122.24362
886.795	221.01462
886.966	174.23611
887.136	238.67845
887.307	155.3369
887.478	370.63402
887.649	292.77449
887.82	316.27895
887.991	247.12745
888.161	319.93977
888.332	288.85496
888.503	138.93159
888.674	490.80965
888.844	590.10437
889.015	372.2785
889.186	156.18848
889.356	510.8224
889.527	138.98329
889.698	1043.46541
889.868	256.32736
890.039	337.98576
890.209	288.77183
890.38	381.24855
890.551	329.16182
890.721	448.04747
890.892	435.1352
891.062	274.56713
891.233	323.87128
891.403	298.55704
891.574	205.85129
891.744	284.08118
891.914	336.93026
892.085	294.0139
892.255	98.41733
892.425	581.57963
892.596	377.13692
892.766	390.34472
892.936	471.76578
893.107	370.52709
893.277	192.40104
893.447	155.96279
893.618	108.72506
893.788	252.55843
893.958	128.22753
894.128	124.02986
894.298	148.21541
894.468	184.2163
894.639	68.67252
894.809	53.19411
894.979	92.53369
895.149	107.21103
895.319	85.01005
895.489	116.02788
895.659	162.90601
895.829	95.26448
895.999	99.42833
896.169	71.34481
896.339	98.44833
896.509	214.33809
896.679	230.56663
896.849	228.16476
897.019	351.44013
897.189	260.75667
897.358	244.11193
897.528	345.10179
897.698	122.80783
897.868	303.98014
898.038	908.06427
898.208	722.45749
898.377	129.75949
898.547	789.90974
898.717	1019.86797
898.886	400.69067
899.056	599.95346
899.226	1466.35074
899.395	439.24681
899.565	847.96439
899.735	437.04115
899.904	1025.82054
900.074	975.64997
900.244	250.61633
900.413	1193.35546
900.583	262.2055
900.752	415.90535
900.922	2013.40032
901.091	37.94059
901.261	633.39858
901.43	652.7689
901.599	570.8775
901.769	7009.86678
901.938	714.71886
902.108	781.54391
902.277	1552.72339
902.446	222.72474
902.616	224.12656
902.785	304.20621
902.954	659.48919
903.124	470.36919
903.293	306.90349
903.462	167.60764
903.631	234.36225
903.801	174.28237
903.97	82.33168
904.139	142.63168
904.308	108.10067
904.477	88.28951
904.646	49.95947
904.816	63.50759
904.985	114.38978
905.154	182.99084
